epoch,loss,top1,lr,minutes
1,4.087633090860703,0.4067957261029412,0.00010294117647058823,0.10370968580245972
2,2.583689619513119,0.6338177849264706,0.00020294117647058824,0.17212735811869304
3,1.8877449561567867,0.7984260110294118,0.00030294117647058824,0.23958413203557333
4,1.4541632813565872,0.8828125,0.0004029411764705883,0.3086543838183085
5,1.104471858809976,0.9321576286764706,0.0005029411764705883,0.3782825271288554
6,0.8527017638963812,0.9581801470588235,0.0006029411764705882,0.45035329659779866
7,0.6922927919556113,0.9698414522058824,0.0007029411764705881,0.521777351697286
8,0.5833201005178339,0.9789177389705882,0.0008029411764705883,0.5931747078895568
9,0.4849803035750109,0.9885684742647058,0.0009029411764705882,0.664468542734782
10,0.4261764875229667,0.9914119944852942,0.001,0.7341749668121338
11,0.3733591428574394,0.9941119025735294,0.0009999706613915565,0.8077717900276185
12,0.3421808139366262,0.9950022977941176,0.000999882649009242,0.877723761399587
13,0.31732485837796154,0.9964384191176471,0.0009997359731816998,0.9495108922322592
14,0.2930762215572245,0.9963809742647058,0.0009995306511219884,1.0201332092285156
15,0.277158408480532,0.9968405330882353,0.0009992667069255619,1.0924131194750468
16,0.26563944799058575,0.9971852022058824,0.0009989441715674422,1.1650244434674581
17,0.25160590559244156,0.9977883731617647,0.0009985630828985835,1.2368423700332642
18,0.24126093001926646,0.9980755974264706,0.0009981234856414306,1.3071346163749695
19,0.23477958975469365,0.9979032628676471,0.000997625431384671,1.3788270791371664
20,0.22787214333520217,0.9980181525735294,0.0009970689785771798,1.4525073170661926
21,0.22290994226932526,0.9976734834558824,0.0009964541925211613,1.5276310801506043
22,0.21507583821521087,0.9978458180147058,0.0009957811453644848,1.598988703886668
23,0.2113591169609743,0.9982766544117647,0.0009950499160922184,1.6699013590812684
24,0.204899879062877,0.9984202665441176,0.0009942605905173593,1.7420156478881836
25,0.20243751915062175,0.9984489889705882,0.0009934132612707631,1.813674302895864
26,0.19742023243623621,0.9987936580882353,0.0009925080277902742,1.8853606462478638
27,0.19163713823346532,0.9985064338235294,0.000991544996309055,1.9562381108601887
28,0.19092232427176306,0.9988511029411765,0.0009905242798431196,2.024601769447327
29,0.1885859308873906,0.9987074908088235,0.000989445998178071,2.094687302907308
30,0.1841794169124435,0.9987362132352942,0.0009883102778550433,2.163637646039327
31,0.18332111660171957,0.9988223805147058,0.0009871172521558522,2.2348792711893717
32,0.17908264740424998,0.9989947150735294,0.0009858670610873527,2.305007815361023
33,0.1772630661725998,0.9988511029411765,0.0009845598513650103,2.3749133984247845
34,0.17343927744556875,0.9987649356617647,0.0009831957763956813,2.4455687006314597
35,0.17442573782275705,0.9984202665441176,0.0009817749962596114,2.51393879254659
36,0.17150983302032247,0.9993106617647058,0.0009802976776916493,2.5874279816945394
37,0.16928308018866708,0.9994542738970589,0.0009787639940616788,2.6582898696263633
38,0.16768095160231872,0.9987936580882353,0.000977174125354274,2.7293051719665526
39,0.1662990499068709,0.9991670496323529,0.0009755282581475768,2.799637500445048
40,0.16602661635945826,0.9991670496323529,0.0009738265855914012,2.870825926462809
41,0.16393675392164903,0.9989947150735294,0.0009720693073845667,2.9432736953099568
42,0.16188188554609523,0.9990234375,0.000970256629751462,3.013218402862549
43,0.15961599832071977,0.9995404411764706,0.0009683887654178445,3.0832858363787334
44,0.1563151825000258,0.9993681066176471,0.0009664659335858754,3.154071589310964
45,0.15613815407542622,0.9993393841911765,0.0009644883599083958,3.2249540090560913
46,0.15822465191869176,0.9989085477941176,0.0009624562764624445,3.2981645703315734
47,0.15639009808792786,0.9991383272058824,0.0009603699217220239,3.3680129011472064
48,0.15321869972874136,0.9993968290441176,0.000958229540530113,3.43884090979894
49,0.1540426055298132,0.9991957720588235,0.000956035384069935,3.510092767079671
50,0.15289135890848496,0.99951171875,0.0009537877098354786,3.5815425237019856
51,0.15106111721080892,0.9993968290441176,0.0009514867816012809,3.65310937166214
52,0.1484602466225624,0.9996553308823529,0.0009491328693914722,3.7242876092592874
53,0.1491979917182642,0.9994255514705882,0.0009467262494480868,3.795263175169627
54,0.14753871016642628,0.9993968290441176,0.0009442672041986457,3.8662590742111207
55,0.14637833614559734,0.9992244944852942,0.0009417560222230115,3.937283460299174
56,0.1472949381260311,0.9993106617647058,0.0009391929982195233,4.008304607868195
57,0.1445637542535277,0.9994829963235294,0.0009365784329704115,4.077383100986481
58,0.14391779592808554,0.9995978860294118,0.0009339126333065006,4.147197949886322
59,0.14216662505093744,0.9995978860294118,0.000931195912071201,4.218537068367004
60,0.14112798957263722,0.9997414981617647,0.0009284285880837946,4.288766813278198
61,0.14140506921445622,0.9994542738970589,0.0009256109861020212,4.360851418972016
62,0.14131300896406174,0.9994829963235294,0.0009227434367839658,4.43060930967331
63,0.1412739946561701,0.9995978860294118,0.0009198262766492554,4.501646733283996
64,0.1408980716677273,0.9993681066176471,0.0009168598480395651,4.573902249336243
65,0.14015036689884522,0.9997127757352942,0.0009138444990784454,4.644383772214254
66,0.14044585561051087,0.9994829963235294,0.0009107805836304658,4.717931358019511
67,0.1390596444115919,0.9993968290441176,0.000907668461259689,4.788520844777425
68,0.1377315201303538,0.9996266084558824,0.0009045084971874737,4.859044921398163
69,0.13686555930796793,0.9997127757352942,0.0009013010622496143,4.930505621433258
70,0.13582157869549358,0.9995691636029411,0.0008980465328528219,5.001237777868907
71,0.13573304519933813,0.99951171875,0.0008947452909305509,5.074400655428568
72,0.13459678564001532,0.9994829963235294,0.0008913977238981779,5.144259508450826
73,0.1341436347540687,0.9997702205882353,0.0008880042246075365,5.215542225042979
74,0.1352861186160761,0.9995978860294118,0.0008845651913008145,5.287375636895498
75,0.1338297492441009,0.9996553308823529,0.0008810810275638182,5.3571419755617775
76,0.1327988343203769,0.9996553308823529,0.0008775521422786103,5.429099909464518
77,0.1334481120986097,0.9996266084558824,0.0008739789495755254,5.500527191162109
78,0.1320705085116274,0.9997127757352942,0.0008703618687845696,5.570879777272542
79,0.13322043900980668,0.9997702205882353,0.0008667013243862111,5.641119237740835
80,0.13242235472973654,0.9995404411764706,0.0008629977459615654,5.711171980698904
81,0.13038420611444643,0.9996840533088235,0.0008592515681419813,5.784945674737295
82,0.13066955305197658,0.9996840533088235,0.0008554632305580354,5.85563534895579
83,0.13020049429991665,0.9995978860294118,0.00085163317778794,5.926267556349436
84,0.128966194084462,0.9999425551470589,0.0008477618593053693,5.996202401320139
85,0.1281413630965878,0.9996553308823529,0.0008438497294267117,6.0676238417625425
86,0.12949046843192158,0.9994829963235294,0.0008398972472577539,6.139402616024017
87,0.12761183652807684,0.9997702205882353,0.0008359048766398031,6.210230278968811
88,0.12667648121714592,0.9997414981617647,0.0008318730860952522,6.281073760986328
89,0.12688160775338903,0.9995978860294118,0.000827802348772598,6.350526241461436
90,0.12599662603700862,0.9997702205882353,0.0008236931423909139,6.420549782117208
91,0.12624296041972496,0.9997702205882353,0.000819545949183788,6.492625308036804
92,0.1267870257005972,0.9997127757352942,0.0008153612558427309,6.56407565275828
93,0.12689880917177482,0.9993393841911765,0.0008111395534600603,6.635791766643524
94,0.1265166213407236,0.9996266084558824,0.0008068813374712689,6.706726431846619
95,0.12579768611227765,0.9995404411764706,0.0008025871075968827,6.777868127822876
96,0.12540806961410186,0.9995691636029411,0.0007982573677838172,6.851165914535523
97,0.12576178921496167,0.9995404411764706,0.0007938926261462366,6.923419638474782
98,0.12555612426470308,0.9996266084558824,0.0007894933949059243,6.995193922519684
99,0.12376426291816375,0.9997127757352942,0.0007850601903321716,7.067119979858399
100,0.12347143866560038,0.9997702205882353,0.0007805935326811913,7.1382297356923425
101,0.12395681725705371,0.9996266084558824,0.0007760939461350624,7.210116342703501
102,0.12300144705702276,0.9998563878676471,0.0007715619587402164,7.280556937058766
103,0.12306287928539164,0.9997702205882353,0.000766998102345468,7.350283292929332
104,0.12389314218479044,0.9998563878676471,0.0007624029125396003,7.423201704025269
105,0.1229105013258317,0.9995404411764706,0.0007577769285885109,7.495623433589936
106,0.12206942105994505,0.9996840533088235,0.0007531206933719271,7.5689699729283655
107,0.12227516643264714,0.9996840533088235,0.0007484347533196961,7.639937074979146
108,0.12104096132166245,0.9997989430147058,0.0007437196583476597,7.71161949634552
109,0.12065490970716757,0.9999138327205882,0.0007389759617931182,7.782874063650767
110,0.1217292891267468,0.9996840533088235,0.0007342042203498951,7.852456219991049
111,0.1201259925523225,0.9996840533088235,0.0007294049940030055,7.925191668669383
112,0.12053338065743446,0.9996266084558824,0.0007245788459629396,7.995565513769786
113,0.12080738386687111,0.9997127757352942,0.0007197263425995681,8.066300662358602
114,0.11989572951022316,0.9996840533088235,0.0007148480533756759,8.135344576835632
115,0.11959883110488162,0.9996266084558824,0.0007099445507801323,8.206824855009716
116,0.1194135976188323,0.9997414981617647,0.000705016410260708,8.279802950223287
117,0.1194007788949153,0.9997989430147058,0.0007000642101565435,8.349182331562043
118,0.11992679492515676,0.9995691636029411,0.0006950885316302773,8.419089444478352
119,0.11910973335890208,0.9998851102941176,0.000690089958599846,8.488528207937877
120,0.11728202967959292,0.9999138327205882,0.0006850690776699572,8.558094934622448
121,0.11797712677541901,0.9997989430147058,0.0006800264780632495,8.629997781912486
122,0.11787836691912483,0.9998851102941176,0.0006749627515511443,8.700288951396942
123,0.1181549703811898,0.9997989430147058,0.0006698784923843993,8.769777544339497
124,0.11894739616443128,0.9997989430147058,0.0006647742972233702,8.840590298175812
125,0.11879538459812894,0.9997127757352942,0.00065965076506799,8.910658319791159
126,0.11680133049102391,0.9998851102941176,0.0006545084971874737,8.983119515577952
127,0.1173081755199853,0.9994829963235294,0.0006493480970497568,9.054426554838816
128,0.11657885725007337,0.9997127757352942,0.0006441701702506753,9.125107077757518
129,0.11575116984107915,0.9995691636029411,0.0006389753244428972,9.195913887023925
130,0.11627891309121076,0.9997414981617647,0.0006337641692646103,9.265803217887878
131,0.11624346366700004,0.9997414981617647,0.0006285373162679804,9.337171252568563
132,0.11643614619970322,0.9998276654411765,0.0006232953788473809,9.408365229765574
133,0.11766946337678853,0.9995691636029411,0.0006180389721674102,9.478578503926595
134,0.11647551024661344,0.9996553308823529,0.0006127687130906971,9.547851649920146
135,0.11607860883369166,0.9997127757352942,0.0006074852201055121,9.619216458002727
136,0.11601482770022224,0.9997989430147058,0.0006021891132531825,9.691554609934489
137,0.11573076511130613,0.9997414981617647,0.0005968810140553292,9.763813634713491
138,0.1148727479226449,0.9997127757352942,0.000591561545440928,9.83322654167811
139,0.11455692657653023,0.9998563878676471,0.0005862313316732063,9.905082889397939
140,0.11490866826737628,0.9997414981617647,0.0005808909982763825,9.975736665725709
141,0.11535187701092046,0.9997702205882353,0.0005755411719622584,10.045720632870992
142,0.1139334269306239,0.9996553308823529,0.0005701824805566722,10.117879029115041
143,0.11437635649653043,0.9997414981617647,0.0005648155529258194,10.187500576178232
144,0.11326351433115847,0.9998276654411765,0.0005594410189024533,10.258507867654165
145,0.11413592012489543,0.9998563878676471,0.0005540595092119709,10.327990210056305
146,0.11338269885848551,0.9999138327205882,0.0005486716553983948,10.400109998385112
147,0.11331883357728229,0.9997127757352942,0.0005432780897502588,10.469597109158833
148,0.11306249262655482,0.9999712775735294,0.0005378794452264051,10.54022719860077
149,0.11249285191297531,0.9997127757352942,0.0005324763553817053,10.610840586821238
150,0.1133167945286807,0.99951171875,0.0005270694542927088,10.681541407108307
151,0.1125085022957886,0.9997702205882353,0.0005216593764832311,10.754233201344809
152,0.1120728979654172,0.9998276654411765,0.0005162467568498903,10.825594703356424
153,0.11135941130273483,0.9998563878676471,0.0005108322305875987,10.895464030901591
154,0.11337259609033079,0.9994542738970589,0.0005054164331150199,10.966767851511637
155,0.11133160047671374,0.9996266084558824,0.0005,11.037653648853302
156,0.11203457042574883,0.9996840533088235,0.0004945835668849801,11.110655319690704
157,0.1120212663184194,0.9998276654411765,0.0004891677694124013,11.180633795261382
158,0.11237213914008702,0.9998276654411765,0.0004837532431501098,11.251852560043336
159,0.11136775485732976,0.9996553308823529,0.00047834062351676893,11.322377030054728
160,0.11157507865744479,0.9997989430147058,0.00047293054570729125,11.394202709197998
161,0.11204998523873441,0.9997702205882353,0.0004675236446182947,11.466606994469961
162,0.11014916835462346,0.9999712775735294,0.00046212055477359496,11.53684157927831
163,0.11067327287267237,0.9998276654411765,0.0004567219102497413,11.60649646917979
164,0.11100159519735504,0.9998276654411765,0.0004513283446016052,11.676199928919475
165,0.1105415779439842,0.9997702205882353,0.0004459404907880292,11.748459474245708
166,0.11073389123467837,0.9997989430147058,0.0004405589810975468,11.820854624112448
167,0.10987282390980159,0.9998276654411765,0.00043518444707418076,11.891719444592793
168,0.11005406958215377,0.9997414981617647,0.00042981751944332785,11.962802652517954
169,0.11064113238278557,0.9999138327205882,0.00042445882803774173,12.032931057612101
170,0.10995346504975767,0.9999712775735294,0.00041910900172361764,12.105238290627797
171,0.1093743371174616,1.0,0.0004137686683267938,12.177220185597738
172,0.10922293649876819,0.9999138327205882,0.0004084384545590719,12.247592949867249
173,0.11060905807158526,0.9998276654411765,0.00040311898594467085,12.316456337769827
174,0.10985250179381932,0.9997127757352942,0.00039781088674681754,12.386295743783315
175,0.10864357431145276,0.9998851102941176,0.0003925147798944881,12.457502090930939
176,0.1088761262157384,0.9997127757352942,0.00038723128690930304,12.531156174341838
177,0.10958189933615572,0.9997414981617647,0.00038196102783259007,12.602247913678488
178,0.10931281898828114,0.9998851102941176,0.00037670462115261914,12.672985935211182
179,0.1087401873048614,0.9997414981617647,0.00037146268373201965,12.743220667044321
180,0.10889102430904612,0.9997414981617647,0.0003662358307353897,12.814480022589366
181,0.10799676727722674,0.9998563878676471,0.00036102467555710287,12.886250293254852
182,0.10892234019496862,0.9997414981617647,0.00035582982974932464,12.95602556069692
183,0.10869996863252976,0.9997989430147058,0.0003506519029502432,13.026358544826508
184,0.10801208676660762,0.9998276654411765,0.00034549150281252633,13.09758985042572
185,0.10871712731964447,0.9997414981617647,0.00034034923493201,13.168844532966613
186,0.10803716542089686,0.9998851102941176,0.0003352257027766298,13.242821383476258
187,0.10780578238122604,0.9998276654411765,0.00033012150761560087,13.31154617468516
188,0.10647299644701622,0.9998563878676471,0.0003250372484488559,13.382091069221497
189,0.10771967010462985,0.9997127757352942,0.0003199735219367508,13.452627774079641
190,0.10759974227232091,0.9998276654411765,0.0003149309223300429,13.522203890482585
191,0.10725613069884918,0.9999138327205882,0.000309910041400154,13.59392325480779
192,0.107023125185686,0.9997127757352942,0.00030491146836972283,13.664047892888387
193,0.10687311256633085,0.9998276654411765,0.00029993578984345673,13.735854776700338
194,0.10646090042941711,0.9998276654411765,0.000294983589739292,13.805138953526814
195,0.10679030769011554,0.9999425551470589,0.0002900554492198677,13.874660948912302
196,0.10721293705351212,0.9998276654411765,0.00028515194662432405,13.947888628641765
197,0.10686188015867681,0.9999425551470589,0.0002802736574004319,14.01765532096227
198,0.10674727992976413,0.9998563878676471,0.00027542115403706064,14.087758763631184
199,0.10649670419447563,0.9997989430147058,0.0002705950059969948,14.156440850098928
200,0.10605095918564235,0.9998563878676471,0.000265795779650105,14.226100428899128
201,0.1060715212541468,0.9998851102941176,0.0002610240382068818,14.300777117411295
202,0.10611690252142794,0.9997414981617647,0.0002562803416523405,14.371722463766734
203,0.10666872626718353,0.9998851102941176,0.000251565246680304,14.442052710056306
204,0.10596534522140727,0.9999425551470589,0.000246879306628073,14.512313862641653
205,0.10612067076213219,0.9997702205882353,0.00024222307141148907,14.584118155638377
206,0.10570553142358274,0.9998563878676471,0.00023759708746039977,14.656976878643036
207,0.10590600857839864,0.9999425551470589,0.00023300189765453194,14.72968518336614
208,0.10553619418950642,0.9998276654411765,0.00022843804125978356,14.799718578656515
209,0.10612617301590302,0.9998276654411765,0.00022390605386493756,14.870448156197865
210,0.1057077354806311,0.9998563878676471,0.00021940646731880887,14.942559762795765
211,0.10527314508662504,0.9999138327205882,0.00021493980966782845,15.016255036989849
212,0.10492637468611493,0.9999712775735294,0.00021050660509407576,15.087424663702647
213,0.1050864313455189,0.9996553308823529,0.00020610737385376348,15.157406143347423
214,0.10555579820099999,0.9997127757352942,0.00020174263221618284,15.228499607245128
215,0.10398736179751508,0.9999425551470589,0.00019741289240311755,15.299745921293894
216,0.10443587995627347,0.9999138327205882,0.00019311866252873128,15.371612584590912
217,0.10341038730214624,0.9998563878676471,0.00018886044653993966,15.442155742645264
218,0.10470086621011004,0.9999425551470589,0.000184638744157269,15.511943205197651
219,0.1041792714420487,1.0,0.00018045405081621214,15.582738840579987
220,0.10518426711068433,0.9999138327205882,0.00017630685760908622,15.653216361999512
221,0.1042683832347393,0.9999425551470589,0.00017219765122740216,15.725474870204925
222,0.10555828012087766,0.9997414981617647,0.00016812691390474788,15.79965110619863
223,0.10492919889443061,0.9998276654411765,0.00016409512336019698,15.869872001806895
224,0.10434815287590027,0.9997414981617647,0.00016010275274224624,15.940467496713003
225,0.10476776716463707,0.9998563878676471,0.00015615027057328847,16.01177651087443
226,0.10420634948155459,0.9997989430147058,0.00015223814069463077,16.08475226163864
227,0.10434390714063364,0.9998563878676471,0.00014836682221206,16.157644923528036
228,0.10408816464683589,0.9997414981617647,0.00014453676944196475,16.22902642885844
229,0.10407201573252678,0.9998276654411765,0.00014074843185801883,16.300408124923706
230,0.10409968236789983,0.9998563878676471,0.00013700225403843458,16.372068945566813
231,0.10355427707819377,0.9998563878676471,0.00013329867561378872,16.44504702091217
232,0.1039631138829624,0.9997702205882353,0.0001296381312154305,16.516660698254903
233,0.10408967010238591,0.9998563878676471,0.00012602105042447482,16.58718888759613
234,0.103548163876814,0.9999712775735294,0.0001224478577213897,16.660013659795126
235,0.10369543796953033,0.9999712775735294,0.00011891897243618183,16.733138608932496
236,0.104355157517335,0.9997989430147058,0.00011543480869918555,16.807234291235606
237,0.1034014286363826,0.9997989430147058,0.00011199577539246347,16.87800612449646
238,0.1027951205477995,0.9999712775735294,0.00010860227610182222,16.949093997478485
239,0.1041776093051714,0.9996553308823529,0.00010525470906944917,17.02046969731649
240,0.10301896162769374,0.9999138327205882,0.00010195346714717812,17.091297721862794
241,0.10337161820601015,0.9996553308823529,9.869893775038557e-05,17.16521176099777
242,0.10341704110888873,0.9999138327205882,9.549150281252633e-05,17.23592578570048
243,0.10277175289743087,0.9998563878676471,9.233153874031102e-05,17.30680208206177
244,0.10308359388042898,0.9999138327205882,8.921941636953435e-05,17.377818648020426
245,0.10386644413366038,0.9998563878676471,8.615550092155477e-05,17.4487024863561
246,0.10295897174407453,0.9999712775735294,8.31401519604349e-05,17.522152201334634
247,0.10322102246915593,0.9998276654411765,8.017372335074486e-05,17.59333221912384
248,0.10249768022228689,0.9997127757352942,7.725656321603413e-05,17.665076808134714
249,0.10354189750026255,0.9998851102941176,7.43890138979788e-05,17.73638653755188
250,0.1030453886179363,0.9997989430147058,7.157141191620536e-05,17.806814273198444
251,0.1030613812891876,0.9998276654411765,6.880408792879905e-05,17.876918423175812
252,0.10283362799707581,0.9997989430147058,6.60873666934993e-05,17.94712329308192
253,0.102084671092384,0.9999138327205882,6.342156702958851e-05,18.017229676246643
254,0.10211502826389145,0.9997989430147058,6.080700178047677e-05,18.087671049435933
255,0.10213562999578084,0.9999425551470589,5.8243977776988585e-05,18.158286126454673
256,0.10287179732147385,0.9998851102941176,5.573279580135448e-05,18.231221385796864
257,0.10301176107981626,0.9996553308823529,5.3273750551913246e-05,18.30084297657013
258,0.10202979121138067,0.9999712775735294,5.086713060852788e-05,18.37256075143814
259,0.10289148657637484,0.9998276654411765,4.851321839871908e-05,18.444051027297974
260,0.1035640724003315,0.9999425551470589,4.621229016452155e-05,18.514632987976075
261,0.10252517680911456,0.9998563878676471,4.3964615930065124e-05,18.587816246350606
262,0.10230919740655843,0.9998851102941176,4.1770459469887e-05,18.658475538094837
263,0.10266639511374866,0.9998563878676471,3.963007827797621e-05,18.729266639550527
264,0.10225453205844935,0.9998563878676471,3.754372353755558e-05,18.79967336257299
265,0.1021575647241929,0.9999138327205882,3.551164009160429e-05,18.871563136577606
266,0.10253608467824318,0.9997414981617647,3.3534066414124486e-05,18.942990203698475
267,0.10213836041443489,0.9998276654411765,3.161123458215553e-05,19.013793754577637
268,0.10197167230003021,0.9997127757352942,2.9743370248538015e-05,19.085146288077038
269,0.10175096484668114,0.9999425551470589,2.7930692615433406e-05,19.155743877093
270,0.10284630778957815,0.9998851102941176,2.617341440859883e-05,19.22657388051351
271,0.10253243564682848,0.9999138327205882,2.4471741852423235e-05,19.299578901131948
272,0.10248786999898798,0.9999425551470589,2.282587464572594e-05,19.370663742224377
273,0.10179136233294711,0.9998276654411765,2.12360059383212e-05,19.44258644580841
274,0.10296438042731847,0.9997127757352942,1.9702322308350672e-05,19.51430827776591
275,0.10277524086482384,0.9998563878676471,1.8225003740388545e-05,19.58558506568273
276,0.10245172547943451,0.9999425551470589,1.680422360431877e-05,19.658769142627715
277,0.10202156292165027,0.9998563878676471,1.544014863498977e-05,19.729077088832856
278,0.10231819836532369,0.9997989430147058,1.4132938912647276e-05,19.798609260718028
279,0.10245950695346384,0.9998851102941176,1.288274784414789e-05,19.868522636095683
280,0.10214884338133476,0.9998563878676471,1.1689722144956671e-05,19.939540322621664
281,0.10207030922174454,0.9997989430147058,1.055400182192906e-05,20.011948064963022
282,0.10158846790299696,0.9998563878676471,9.475720156880418e-06,20.082308200995126
283,0.10194485020988128,0.9998276654411765,8.45500369094504e-06,20.152629963556926
284,0.10205543873941197,0.9996266084558824,7.4919722097258055e-06,20.224141530195872
285,0.10141110354486634,0.9998851102941176,6.58673872923693e-06,20.294588816165923
286,0.10210766139275887,1.0,5.739409482640901e-06,20.36606790224711
287,0.10169560637544184,0.9997127757352942,4.950083907781733e-06,20.438092438379922
288,0.10189470166669172,0.9997702205882353,4.218854635515301e-06,20.507680495580036
289,0.10260776452281896,0.9997989430147058,3.545807478838814e-06,20.57965689500173
290,0.10199839709436193,0.9999138327205882,2.9310214228202015e-06,20.651452398300172
291,0.10115824420662488,0.9998563878676471,2.3745686153290315e-06,20.725157980124155
292,0.10183355672394528,0.9998851102941176,1.8765143585693922e-06,20.795596579710644
293,0.10133154493044405,0.9998851102941176,1.4369171014165793e-06,20.865732602278392
294,0.10225145299645032,0.9998851102941176,1.0558284325578037e-06,20.93669952948888
295,0.10157287076992147,0.9997989430147058,7.332930744380905e-07,21.006486117839813
296,0.10237980195704628,0.9999712775735294,4.6934887801164396e-07,21.08050952355067
297,0.10189649418872945,0.9998851102941176,2.6402681830023365e-07,21.14963821967443
298,0.10204524196246091,0.9998851102941176,1.173509907579362e-07,21.22050865491231
299,0.10143423321492531,0.9999425551470589,2.933860844345215e-08,21.28780128955841
300,0.10112151196774315,0.9999712775735294,0.0,21.359561947981515
