epoch,loss,top1,lr,minutes
1,3.6341044902801514,0.5544289981617647,0.00010294117647058823,0.09634640216827392
2,2.130051405990825,0.7748736213235294,0.00020294117647058824,0.16402166684468586
3,1.5287114977836609,0.8894186580882353,0.00030294117647058824,0.23375750382741292
4,1.1647899852079504,0.9315257352941176,0.0004029411764705883,0.3038505752881368
5,0.8904114873970256,0.9552217371323529,0.0005029411764705883,0.37989811499913534
6,0.6898355343762566,0.9719956341911765,0.0006029411764705882,0.4523384690284729
7,0.5657071558868184,0.9801815257352942,0.0007029411764705881,0.5208819150924683
8,0.4775400547420277,0.9865579044117647,0.0008029411764705883,0.58984215259552
9,0.39914144750903635,0.9924460018382353,0.0009029411764705882,0.6584618290265402
10,0.35465439978767843,0.9941693474264706,0.001,0.7294228315353394
11,0.3123881010448231,0.9956916360294118,0.0009999706613915565,0.8015488982200623
12,0.2883366232409197,0.9964096966911765,0.000999882649009242,0.8715617934862773
13,0.26792978539186363,0.9974149816176471,0.0009997359731816998,0.9424058159192403
14,0.25022397102678523,0.9974437040441176,0.0009995306511219884,1.0136441429456076
15,0.23705927370225682,0.9978745404411765,0.0009992667069255619,1.0856882413228353
16,0.22925437855369904,0.9978745404411765,0.0009989441715674422,1.158288339773814
17,0.21755185767131693,0.9983628216911765,0.0009985630828985835,1.2296665867169698
18,0.20802343461443396,0.9988223805147058,0.0009981234856414306,1.299935249487559
19,0.2035454866640708,0.9987649356617647,0.000997625431384671,1.3703003923098247
20,0.1999021514373667,0.9983628216911765,0.0009970689785771798,1.4387181679407754
21,0.19462890572407665,0.9981904871323529,0.0009964541925211613,1.509201419353485
22,0.18765112889163635,0.9988223805147058,0.0009957811453644848,1.5782881816228231
23,0.18461702062803156,0.9987936580882353,0.0009950499160922184,1.6471524477005004
24,0.1796786679941065,0.9989659926470589,0.0009942605905173593,1.7157999356587728
25,0.1781513230765567,0.9987649356617647,0.0009934132612707631,1.7858315070470174
26,0.1730556268902386,0.9993106617647058,0.0009925080277902742,1.8559771696726481
27,0.16966591687763438,0.9989372702205882,0.000991544996309055,1.9256568590799967
28,0.1683198169750326,0.9989659926470589,0.0009905242798431196,1.9930516044298807
29,0.16594691399265737,0.9992532169117647,0.000989445998178071,2.0625882903734842
30,0.16216298148912542,0.9992532169117647,0.0009883102778550433,2.1319316903750103
31,0.16234343893387737,0.9993106617647058,0.0009871172521558522,2.2022480289141337
32,0.15862193922786152,0.9994255514705882,0.0009858670610873527,2.2716731389363605
33,0.15683373984168558,0.9994542738970589,0.0009845598513650103,2.34184646209081
34,0.1538901052930776,0.9991670496323529,0.0009831957763956813,2.4113723675409955
35,0.15441131022046595,0.9991383272058824,0.0009817749962596114,2.4808745940526324
36,0.15235119882751913,0.9994542738970589,0.0009802976776916493,2.554042840003967
37,0.15011888348004399,0.9995978860294118,0.0009787639940616788,2.621618866920471
38,0.1495701675029362,0.9992532169117647,0.000977174125354274,2.6923866907755536
39,0.14850003710564444,0.9993681066176471,0.0009755282581475768,2.7633567412694293
40,0.1488298335496117,0.99951171875,0.0009738265855914012,2.83324164946874
41,0.14646509377395406,0.9993968290441176,0.0009720693073845667,2.905263145764669
42,0.1449782545952236,0.9993968290441176,0.000970256629751462,2.9754050850868223
43,0.142954921021181,0.9997127757352942,0.0009683887654178445,3.0450094739596048
44,0.14020120440160527,0.9996266084558824,0.0009664659335858754,3.115018606185913
45,0.13965993944336386,0.9995691636029411,0.0009644883599083958,3.1851935108502705
46,0.14166711752905564,0.9991957720588235,0.0009624562764624445,3.2565226316452027
47,0.13993868582388935,0.9993393841911765,0.0009603699217220239,3.3253156224886578
48,0.13747847562327103,0.9995691636029411,0.000958229540530113,3.3954530994097394
49,0.13857794509214513,0.99951171875,0.000956035384069935,3.464695902665456
50,0.13733616821906147,0.9996840533088235,0.0009537877098354786,3.533795932928721
51,0.13497250220354864,0.9995978860294118,0.0009514867816012809,3.605040649573008
52,0.1333765619817902,0.9997989430147058,0.0009491328693914722,3.673922300338745
53,0.13407854253754897,0.9995404411764706,0.0009467262494480868,3.744919796784719
54,0.13281539608450496,0.9997702205882353,0.0009442672041986457,3.814672104517619
55,0.13185531207743814,0.9995404411764706,0.0009417560222230115,3.886315906047821
56,0.13276038800968842,0.9995404411764706,0.0009391929982195233,3.9574453592300416
57,0.12956914261860006,0.9997127757352942,0.0009365784329704115,4.029178539911906
58,0.12978201578645146,0.9997414981617647,0.0009339126333065006,4.097766268253326
59,0.1284975714105017,0.9997702205882353,0.000931195912071201,4.16778773466746
60,0.12727008102571263,0.9998276654411765,0.0009284285880837946,4.238587840398153
61,0.12815273136777036,0.9997414981617647,0.0009256109861020212,4.3106751044591265
62,0.12854120069566896,0.9996553308823529,0.0009227434367839658,4.381387547651927
63,0.1278636841213002,0.9996840533088235,0.0009198262766492554,4.450618060429891
64,0.12693964273614042,0.9996553308823529,0.0009168598480395651,4.521272929509481
65,0.12628194908885396,0.9997414981617647,0.0009138444990784454,4.592357567946116
66,0.12641393787720623,0.9996840533088235,0.0009107805836304658,4.663092263539633
67,0.12622174094705021,0.9995404411764706,0.000907668461259689,4.732499623298645
68,0.12461037385989637,0.9997414981617647,0.0009045084971874737,4.801853239536285
69,0.12382635452291545,0.9997702205882353,0.0009013010622496143,4.871541519959767
70,0.12267172687193927,0.9997127757352942,0.0008980465328528219,4.93978921175003
71,0.12315795154255979,0.9997414981617647,0.0008947452909305509,5.011778696378072
72,0.12227446257191546,0.9996840533088235,0.0008913977238981779,5.081567124525706
73,0.12242869616431348,0.9999138327205882,0.0008880042246075365,5.151181852817535
74,0.12279749442549313,0.9997414981617647,0.0008845651913008145,5.222672712802887
75,0.12146235345041051,0.9998276654411765,0.0008810810275638182,5.2935640414555865
76,0.120600745520171,0.9997702205882353,0.0008775521422786103,5.362412730852763
77,0.12123256439671797,0.9998276654411765,0.0008739789495755254,5.430329449971517
78,0.12011005707523402,0.9998276654411765,0.0008703618687845696,5.498597594102224
79,0.1213737138930489,0.9997127757352942,0.0008667013243862111,5.5697940190633135
80,0.12036804942523732,0.9997127757352942,0.0008629977459615654,5.639514768123627
81,0.11831036823637345,0.9999138327205882,0.0008592515681419813,5.71086569627126
82,0.1190945260664996,0.9997702205882353,0.0008554632305580354,5.781719807783762
83,0.11865267683477963,0.9997989430147058,0.00085163317778794,5.851105531056722
84,0.1179445112014518,0.9998276654411765,0.0008477618593053693,5.9213839610417685
85,0.11662365715293323,0.9997989430147058,0.0008438497294267117,5.989968752861023
86,0.11821577303549823,0.9997127757352942,0.0008398972472577539,6.062691962718963
87,0.11657268532058772,0.9998276654411765,0.0008359048766398031,6.132809750239054
88,0.11546254420981687,0.9998276654411765,0.0008318730860952522,6.204597969849904
89,0.1158440113067627,0.9998276654411765,0.000827802348772598,6.274290132522583
90,0.11522289738059044,0.9999138327205882,0.0008236931423909139,6.342501290639242
91,0.1155190732987488,0.9998276654411765,0.000819545949183788,6.41353546778361
92,0.11643484804560156,0.9997414981617647,0.0008153612558427309,6.481852642695109
93,0.11571496023851283,0.99951171875,0.0008111395534600603,6.551521984736125
94,0.11613143345012385,0.9996840533088235,0.0008068813374712689,6.620654690265655
95,0.11507388730259503,0.9997127757352942,0.0008025871075968827,6.691473805904389
96,0.11473079529755256,0.9999425551470589,0.0007982573677838172,6.7624638199806215
97,0.11569073248435469,0.9996840533088235,0.0007938926261462366,6.832780933380127
98,0.11490324928480036,0.9997989430147058,0.0007894933949059243,6.903035573164622
99,0.11303260747124166,0.9997989430147058,0.0007850601903321716,6.974337267875671
100,0.11292883578468771,1.0,0.0007805935326811913,7.043950394789378
101,0.11356646041659747,0.9998563878676471,0.0007760939461350624,7.115616206328074
102,0.11305792016141555,0.9999138327205882,0.0007715619587402164,7.185506522655487
103,0.11264087369336802,0.9997702205882353,0.000766998102345468,7.2556723833084105
104,0.11341160952168353,0.9998851102941176,0.0007624029125396003,7.325411999225617
105,0.11292178424842217,0.9998563878676471,0.0007577769285885109,7.394936490058899
106,0.11215286044513478,0.9997989430147058,0.0007531206933719271,7.466919283072154
107,0.11238457174862132,0.9998851102941176,0.0007484347533196961,7.537738605340322
108,0.11064075788154322,0.9998851102941176,0.0007437196583476597,7.608102289835612
109,0.11048789366203196,0.9999138327205882,0.0007389759617931182,7.677991008758545
110,0.11126356352778043,0.9997702205882353,0.0007342042203498951,7.7488514423370365
111,0.11032432580695432,0.9997989430147058,0.0007294049940030055,7.820036919911702
112,0.11022215906311483,0.9998276654411765,0.0007245788459629396,7.89091416200002
113,0.11082469671964645,0.9997989430147058,0.0007197263425995681,7.962246708075205
114,0.10970011178184957,0.9998851102941176,0.0007148480533756759,8.034186553955077
115,0.10980378639172106,0.9997414981617647,0.0007099445507801323,8.104007550080617
116,0.10967312446411918,0.9998563878676471,0.000705016410260708,8.173994239171346
117,0.10967911144389826,0.9997127757352942,0.0007000642101565435,8.244864928722382
118,0.11060133488739238,0.9997127757352942,0.0006950885316302773,8.315253210067748
119,0.10967361554503441,0.9998276654411765,0.000690089958599846,8.385216252009075
120,0.10787728604148417,0.9998851102941176,0.0006850690776699572,8.4552423675855
121,0.10839199822615175,0.9997414981617647,0.0006800264780632495,8.52648755311966
122,0.10881809780702871,0.9999425551470589,0.0006749627515511443,8.595133384068808
123,0.10901882280321683,0.9999138327205882,0.0006698784923843993,8.664000805219015
124,0.10913302201558561,0.9998563878676471,0.0006647742972233702,8.7333549340566
125,0.10953161361462929,0.9997414981617647,0.00065965076506799,8.802236394087474
126,0.10768717680783833,0.9999425551470589,0.0006545084971874737,8.872799603144328
127,0.10771263303125606,0.9995691636029411,0.0006493480970497568,8.94401619831721
128,0.10752924969967674,0.9997989430147058,0.0006441701702506753,9.013068222999573
129,0.10646529692937345,0.9997414981617647,0.0006389753244428972,9.082701834042867
130,0.10723171821411918,0.9997702205882353,0.0006337641692646103,9.150732298692068
131,0.10785150988137021,0.9997702205882353,0.0006285373162679804,9.22263784011205
132,0.10755942652330679,0.9998276654411765,0.0006232953788473809,9.291715637842815
133,0.10831274881082423,0.9997127757352942,0.0006180389721674102,9.361382106939951
134,0.10730059401077383,0.9997989430147058,0.0006127687130906971,9.431172561645507
135,0.10655548839884646,0.9998851102941176,0.0006074852201055121,9.501164678732554
136,0.1068221150952227,0.9998851102941176,0.0006021891132531825,9.573202363650005
137,0.10670529831858243,0.9997702205882353,0.0005968810140553292,9.6425222158432
138,0.10588157922029495,0.9999712775735294,0.000591561545440928,9.712658925851185
139,0.1058350768597687,0.9999138327205882,0.0005862313316732063,9.782929992675781
140,0.10567099732511184,0.9998563878676471,0.0005808909982763825,9.852158522605896
141,0.10618930156616603,0.9997989430147058,0.0005755411719622584,9.922181737422942
142,0.10560178340357892,0.9998276654411765,0.0005701824805566722,9.991097084681194
143,0.10563715459669337,0.9998563878676471,0.0005648155529258194,10.060687764485676
144,0.10484499856829643,0.9997989430147058,0.0005594410189024533,10.129670441150665
145,0.10548384290407686,0.9997989430147058,0.0005540595092119709,10.199688597520192
146,0.10431982094750684,0.9998851102941176,0.0005486716553983948,10.27037734190623
147,0.1045585638459991,0.9998563878676471,0.0005432780897502588,10.339934265613556
148,0.10446200958069633,1.0,0.0005378794452264051,10.410443671544392
149,0.10402955092927989,0.9997702205882353,0.0005324763553817053,10.480529777208965
150,0.10485575063263669,0.9996266084558824,0.0005270694542927088,10.549636391798655
151,0.10429649033090647,0.9998851102941176,0.0005216593764832311,10.621345790227254
152,0.10369366933317746,0.9998563878676471,0.0005162467568498903,10.691105898221334
153,0.10295128668932353,0.9999425551470589,0.0005108322305875987,10.760177461306254
154,0.10529400956104784,0.9993968290441176,0.0005054164331150199,10.829510966936747
155,0.10285431146621704,0.9997127757352942,0.0005,10.899894885222118
156,0.103471409967717,0.9998563878676471,0.0004945835668849801,10.97178503672282
157,0.1035106344258084,0.9999425551470589,0.0004891677694124013,11.04215810696284
158,0.10392472498557147,0.9998563878676471,0.0004837532431501098,11.111834228038788
159,0.10298006784390001,0.9997989430147058,0.00047834062351676893,11.183571688334148
160,0.10309834361952894,0.9998851102941176,0.00047293054570729125,11.254413251082102
161,0.10337747501976349,0.9998276654411765,0.0004675236446182947,11.326038308938344
162,0.1021386457278448,0.9999425551470589,0.00046212055477359496,11.395774519443512
163,0.10273844617254593,0.9999138327205882,0.0004567219102497413,11.466520094871521
164,0.10280598743873484,0.9999138327205882,0.0004513283446016052,11.535155876477559
165,0.10294232188778765,0.9999712775735294,0.0004459404907880292,11.605183311303456
166,0.10272560115246211,0.9997989430147058,0.0004405589810975468,11.67827266852061
167,0.10225156256381203,0.9999712775735294,0.00043518444707418076,11.749543702602386
168,0.10226996133432668,0.9998563878676471,0.00042981751944332785,11.817869631449382
169,0.10268258654019412,0.9998276654411765,0.00042445882803774173,11.883590042591095
170,0.10171293993206586,0.9999138327205882,0.00041910900172361764,11.952978579203288
171,0.10155279255088638,1.0,0.0004137686683267938,12.024524060885112
172,0.1013706109541304,0.9999712775735294,0.0004084384545590719,12.093566020329794
173,0.10241479010266416,0.9999425551470589,0.00040311898594467085,12.162953106562297
174,0.10185363384730675,0.9996553308823529,0.00039781088674681754,12.233065700531006
175,0.10063634549870211,0.9999712775735294,0.0003925147798944881,12.30303220351537
176,0.10116512021597694,0.9998851102941176,0.00038723128690930304,12.374036459128062
177,0.1017126879271339,0.9998276654411765,0.00038196102783259007,12.443678963184357
178,0.10165505922015976,0.9999138327205882,0.00037670462115261914,12.512792074680329
179,0.10085577298613156,0.9998563878676471,0.00037146268373201965,12.58194632132848
180,0.10064180085764211,0.9998563878676471,0.0003662358307353897,12.651159878571828
181,0.10022210899521322,0.9997702205882353,0.00036102467555710287,12.72281950712204
182,0.10069556994473233,0.9998276654411765,0.00035582982974932464,12.792404007911681
183,0.10092150682912153,0.9998851102941176,0.0003506519029502432,12.862179402510325
184,0.10062506510054364,0.9999138327205882,0.00034549150281252633,12.931762421131134
185,0.10112265913802035,0.9998276654411765,0.00034034923493201,13.001615977287292
186,0.10050782846177325,0.9999138327205882,0.0003352257027766298,13.073339374860128
187,0.10003138004856951,0.9999712775735294,0.00033012150761560087,13.142902866999309
188,0.09880296053255305,0.9999138327205882,0.0003250372484488559,13.21208497285843
189,0.09986189358374652,0.9997702205882353,0.0003199735219367508,13.281148846944173
190,0.09983434024102547,0.9999138327205882,0.0003149309223300429,13.350542962551117
191,0.09964386110796648,1.0,0.000309910041400154,13.421308696269989
192,0.09924965527127771,0.9997989430147058,0.00030491146836972283,13.490153010686239
193,0.09964122995734215,0.9998563878676471,0.00029993578984345673,13.560447756449381
194,0.09891843094545252,0.9998851102941176,0.000294983589739292,13.629038389523824
195,0.09925021340741831,0.9999712775735294,0.0002900554492198677,13.698545614878336
196,0.0994954253820812,0.9999138327205882,0.00028515194662432405,13.769434221585591
197,0.0992574683007072,0.9999425551470589,0.0002802736574004319,13.83805730342865
198,0.09925646181492244,0.9998851102941176,0.00027542115403706064,13.908644207318623
199,0.09902249912128729,0.9998276654411765,0.0002705950059969948,13.976360181967417
200,0.09853227129753898,0.9999138327205882,0.000265795779650105,14.04522822300593
201,0.09877904460710638,0.9998276654411765,0.0002610240382068818,14.116157948970795
202,0.09833681473837179,0.9996266084558824,0.0002562803416523405,14.185251768430074
203,0.09886530260829364,0.9999425551470589,0.000251565246680304,14.253054861227671
204,0.09851149053258054,0.9999425551470589,0.000246879306628073,14.322199555238088
205,0.09853021230767756,0.9998851102941176,0.00024222307141148907,14.390816430250803
206,0.09830045152236433,0.9998851102941176,0.00023759708746039977,14.46260154247284
207,0.09883541087893878,0.9999712775735294,0.00023300189765453194,14.531642969449361
208,0.0981677902095458,0.9999425551470589,0.00022843804125978356,14.601401992638905
209,0.09873021569322138,0.9999712775735294,0.00022390605386493756,14.670833162466685
210,0.09803029588040184,0.9998851102941176,0.00021940646731880887,14.740532374382019
211,0.0979348348782343,0.9999425551470589,0.00021493980966782845,14.810968136787414
212,0.09769820575328435,1.0,0.00021050660509407576,14.880517613887786
213,0.0981054805657443,0.9996840533088235,0.00020610737385376348,14.949821627140045
214,0.09773015734903953,0.9998276654411765,0.00020174263221618284,15.018691305319468
215,0.09662923238733236,0.9999712775735294,0.00019741289240311755,15.087288649876912
216,0.09720152967116412,1.0,0.00019311866252873128,15.159292113780975
217,0.09621544795877793,0.9997989430147058,0.00018886044653993966,15.228297062714894
218,0.09741500524037025,0.9999425551470589,0.000184638744157269,15.296203712622324
219,0.0969280081198496,0.9999712775735294,0.00018045405081621214,15.365491386254629
220,0.0977242652545957,0.9997989430147058,0.00017630685760908622,15.435748032728831
221,0.09713239858255666,0.9998851102941176,0.00017219765122740216,15.507606446743011
222,0.09831123097854502,0.9997702205882353,0.00016812691390474788,15.576935986677805
223,0.09787826875553411,0.9999138327205882,0.00016409512336019698,15.64571402867635
224,0.09722544866449692,0.9999138327205882,0.00016010275274224624,15.713940640290579
225,0.09738249726155225,0.9999138327205882,0.00015615027057328847,15.782872490088145
226,0.09704028990338831,0.9999138327205882,0.00015223814069463077,15.85411748488744
227,0.09710793219068471,0.9999712775735294,0.00014836682221206,15.92292023897171
228,0.09686910624013227,0.9998851102941176,0.00014453676944196475,15.991633641719819
229,0.0968108854311354,0.9999138327205882,0.00014074843185801883,16.06118969519933
230,0.09690966632436304,0.9999138327205882,0.00013700225403843458,16.13015923500061
231,0.09623148686745588,0.9998276654411765,0.00013329867561378872,16.20181697209676
232,0.0969790023039369,0.9998563878676471,0.0001296381312154305,16.271108996868133
233,0.09703168251058635,0.9998563878676471,0.00012602105042447482,16.33925007581711
234,0.09619071005898364,0.9999712775735294,0.0001224478577213897,16.40928124586741
235,0.09637824906145825,1.0,0.00011891897243618183,16.477959358692168
236,0.0971808836740606,0.9998851102941176,0.00011543480869918555,16.548228287696837
237,0.09641757432152243,0.9999138327205882,0.00011199577539246347,16.617779592672985
238,0.09554713832981446,0.9999712775735294,0.00010860227610182222,16.686816477775572
239,0.09703962986960131,0.9995978860294118,0.00010525470906944917,16.755891589323678
240,0.0960767619750079,0.9999425551470589,0.00010195346714717812,16.825219281514485
241,0.09612270488458521,0.9997989430147058,9.869893775038557e-05,16.894543635845185
242,0.09617068552795578,0.9999425551470589,9.549150281252633e-05,16.96436903079351
243,0.09562038827468367,1.0,9.233153874031102e-05,17.03487095038096
244,0.09610491618514061,1.0,8.921941636953435e-05,17.10312936306
245,0.09664967437000836,0.9998851102941176,8.615550092155477e-05,17.173155228296917
246,0.09621414914727211,0.9999712775735294,8.31401519604349e-05,17.245339461167653
247,0.09615826628663961,0.9999138327205882,8.017372335074486e-05,17.312997512022655
248,0.09577262445407755,0.9998851102941176,7.725656321603413e-05,17.381823722521464
249,0.09633166342973709,0.9999425551470589,7.43890138979788e-05,17.451083966096242
250,0.0962179279064431,0.9998563878676471,7.157141191620536e-05,17.520645320415497
251,0.09623917082653326,0.9998563878676471,6.880408792879905e-05,17.593063537279765
252,0.09569087975165423,0.9998563878676471,6.60873666934993e-05,17.66368125677109
253,0.09543494748718598,0.9999425551470589,6.342156702958851e-05,17.733177161216737
254,0.09532100203282692,0.9998851102941176,6.080700178047677e-05,17.801130215326946
255,0.09527048490503255,0.9999712775735294,5.8243977776988585e-05,17.872119152545928
256,0.09580909153994392,0.9999425551470589,5.573279580135448e-05,17.942880793412527
257,0.09612234725671656,0.9997989430147058,5.3273750551913246e-05,18.013778710365294
258,0.09500390291213989,0.9999712775735294,5.086713060852788e-05,18.08300054470698
259,0.09576736916514005,0.9999425551470589,4.851321839871908e-05,18.153457323710125
260,0.09647373767460093,0.9999425551470589,4.621229016452155e-05,18.22267640431722
261,0.0956465045318884,0.9999138327205882,4.3964615930065124e-05,18.294340988000233
262,0.09528846994918935,0.9999138327205882,4.1770459469887e-05,18.364834864934284
263,0.09570230105343987,0.9999138327205882,3.963007827797621e-05,18.435438887278238
264,0.0952107067055562,0.9999712775735294,3.754372353755558e-05,18.504945464928944
265,0.09516718282419093,1.0,3.551164009160429e-05,18.576469576358797
266,0.0954648107290268,0.9998276654411765,3.3534066414124486e-05,18.647865370909372
267,0.09518358177121948,0.9998563878676471,3.161123458215553e-05,18.718053086598715
268,0.09510594496832174,0.9997702205882353,2.9743370248538015e-05,18.78666553894679
269,0.09486380285199951,0.9998851102941176,2.7930692615433406e-05,18.85816460053126
270,0.0958105284063255,0.9999712775735294,2.617341440859883e-05,18.928649604320526
271,0.09541752277051702,0.9999138327205882,2.4471741852423235e-05,19.00060764948527
272,0.09554781589437933,0.9999712775735294,2.282587464572594e-05,19.070845492680867
273,0.09498070750166387,0.9998563878676471,2.12360059383212e-05,19.140220137437186
274,0.09578346482971135,0.9997414981617647,1.9702322308350672e-05,19.210127850373585
275,0.09565122184507988,0.9998563878676471,1.8225003740388545e-05,19.28008376757304
276,0.09527573340079364,0.9999425551470589,1.680422360431877e-05,19.35255012114843
277,0.09506041074500364,0.9999138327205882,1.544014863498977e-05,19.421786793073018
278,0.09514098702108159,0.9997989430147058,1.4132938912647276e-05,19.490779280662537
279,0.09564443852971583,0.9999712775735294,1.288274784414789e-05,19.560175144672392
280,0.09543802085168221,0.9998851102941176,1.1689722144956671e-05,19.62867625951767
281,0.0952702488969354,0.9998851102941176,1.055400182192906e-05,19.699990844726564
282,0.0948715205578243,0.9997702205882353,9.475720156880418e-06,19.76977110703786
283,0.09503448338193052,0.9998851102941176,8.45500369094504e-06,19.839204506079355
284,0.09505792926339542,0.9998276654411765,7.4919722097258055e-06,19.90863182544708
285,0.09474163787329898,0.9999138327205882,6.58673872923693e-06,19.978663897514345
286,0.09499815895276911,0.9999712775735294,5.739409482640901e-06,20.050762859980264
287,0.09478125195292865,0.9999138327205882,4.950083907781733e-06,20.120602055390677
288,0.09519695118069649,0.9998851102941176,4.218854635515301e-06,20.18982233206431
289,0.09564605377176229,0.9999138327205882,3.545807478838814e-06,20.259326322873434
290,0.09515148554654683,0.9999712775735294,2.9310214228202015e-06,20.330586644013724
291,0.09465434993891154,0.9998563878676471,2.3745686153290315e-06,20.4042471408844
292,0.09495552322443794,0.9998851102941176,1.8765143585693922e-06,20.47296459674835
293,0.09443893174038213,1.0,1.4369171014165793e-06,20.54425019820531
294,0.09510169375468702,0.9999138327205882,1.0558284325578037e-06,20.613115839163463
295,0.09465346069020383,0.9998851102941176,7.332930744380905e-07,20.68181183338165
296,0.09544416275971077,0.9999138327205882,4.6934887801164396e-07,20.75385046005249
297,0.09528928359641749,0.9999138327205882,2.6402681830023365e-07,20.82397643327713
298,0.09506733299178236,1.0,1.173509907579362e-07,20.893052566051484
299,0.09436643101713237,0.9999425551470589,2.933860844345215e-08,20.96275268395742
300,0.09444579986088417,1.0,0.0,21.032825887203217
