epoch,loss,top1,lr,minutes
1,4.16290814035079,0.42322495404411764,0.00010294117647058823,0.08677361011505128
2,2.520736385794247,0.6783088235294118,0.00020294117647058824,0.1579667607943217
3,1.8380669109961565,0.8411075367647058,0.00030294117647058824,0.22710650364557902
4,1.4492222175878637,0.9036937040441176,0.0004029411764705883,0.2972070097923279
5,1.1351682701531578,0.9372702205882353,0.0005029411764705883,0.3675276279449463
6,0.9076018070473391,0.9539866727941176,0.0006029411764705882,0.43979397614796956
7,0.7162814070196712,0.9675149356617647,0.0007029411764705881,0.5112967848777771
8,0.6033130340716418,0.9748965992647058,0.0008029411764705883,0.5815152565638224
9,0.5126812554457608,0.9824793198529411,0.0009029411764705882,0.6537315726280213
10,0.43916698939660015,0.98876953125,0.001,0.7252245624860127
11,0.4016127665253246,0.9903779871323529,0.0009999706613915565,0.7982190132141114
12,0.3684130609035492,0.9916130514705882,0.000999882649009242,0.8683871229489645
13,0.34251218858887167,0.9930204503676471,0.0009997359731816998,0.9388341506322225
14,0.31804033500306744,0.9937097886029411,0.0009995306511219884,1.0103360533714294
15,0.30693405253045697,0.9943416819852942,0.0009992667069255619,1.079117755095164
16,0.28915896047564116,0.9952033547794118,0.0009989441715674422,1.1503526290257773
17,0.28265496387201194,0.9946576286764706,0.0009985630828985835,1.2212797443072
18,0.2717549441491856,0.9951746323529411,0.0009981234856414306,1.2917596697807312
19,0.26611875260577483,0.9957203584558824,0.000997625431384671,1.3617191394170125
20,0.25699760238913927,0.9957490808823529,0.0009970689785771798,1.4328650514284769
21,0.251629786018063,0.9956341911764706,0.0009964541925211613,1.507423198223114
22,0.24551473207333507,0.9957203584558824,0.0009957811453644848,1.5783683101336161
23,0.237620770054705,0.9964671415441176,0.0009950499160922184,1.6477206389109293
24,0.23685458959902034,0.9958352481617647,0.0009942605905173593,1.7179670969645182
25,0.23272950509015253,0.9961799172794118,0.0009934132612707631,1.7902135769526164
26,0.2298426132868318,0.9963522518382353,0.0009925080277902742,1.8634390036265056
27,0.22579075527541778,0.9963809742647058,0.000991544996309055,1.935204263528188
28,0.22017817506018808,0.9968692555147058,0.0009905242798431196,2.007066019376119
29,0.2212411822641597,0.9964958639705882,0.000989445998178071,2.0782702128092447
30,0.21561545045936809,0.9971277573529411,0.0009883102778550433,2.1501298546791077
31,0.21262463751961203,0.9962373621323529,0.0009871172521558522,2.2222074031829835
32,0.2088354313198258,0.9972426470588235,0.0009858670610873527,2.2930577953656512
33,0.20814424665535197,0.9970128676470589,0.0009845598513650103,2.3625991781552633
34,0.20464294885887818,0.9970128676470589,0.0009831957763956813,2.4323673486709594
35,0.19996396013919046,0.9977596507352942,0.0009817749962596114,2.5052354534467063
36,0.19751870938960245,0.9975011488970589,0.0009802976776916493,2.581960662206014
37,0.19601942204377232,0.9978745404411765,0.0009787639940616788,2.6565669814745587
38,0.19335948325255337,0.9976447610294118,0.000977174125354274,2.7318164587020872
39,0.19190004248829448,0.9975873161764706,0.0009755282581475768,2.808071811993917
40,0.18841165260357015,0.9977883731617647,0.0009738265855914012,2.8820454279581704
41,0.18907294378561132,0.9975873161764706,0.0009720693073845667,2.9580854296684267
42,0.18872180011342554,0.9975298713235294,0.000970256629751462,3.0280443946520488
43,0.18780580338309794,0.9977309283088235,0.0009683887654178445,3.097708257039388
44,0.18245531136498733,0.9982766544117647,0.0009664659335858754,3.1704687118530273
45,0.18403857026030035,0.9976734834558824,0.0009644883599083958,3.2421457807223004
46,0.18524730819113114,0.9970415900735294,0.0009624562764624445,3.314960273106893
47,0.18253545112469616,0.9977309283088235,0.0009603699217220239,3.385525580247243
48,0.18083761281826916,0.9975298713235294,0.000958229540530113,3.4561975717544557
49,0.17741306871175766,0.9976160386029411,0.000956035384069935,3.5286751627922057
50,0.1765785046360072,0.9977596507352942,0.0009537877098354786,3.5994253118832904
51,0.1786590814590454,0.9973575367647058,0.0009514867816012809,3.672615627447764
52,0.17552806261707754,0.9979032628676471,0.0009491328693914722,3.7435611685117087
53,0.1724248042001444,0.9979894301470589,0.0009467262494480868,3.8141767501831056
54,0.1738513716880013,0.998046875,0.0009442672041986457,3.885498889287313
55,0.16976498724783168,0.998046875,0.0009417560222230115,3.95727401971817
56,0.17027114112587535,0.9981043198529411,0.0009391929982195233,4.028503739833832
57,0.17074996671255896,0.9978745404411765,0.0009365784329704115,4.098291619618734
58,0.16799800711519577,0.9984489889705882,0.0009339126333065006,4.169864765803019
59,0.16626746207475662,0.9982192095588235,0.000931195912071201,4.238997713724772
60,0.17025764900095322,0.9976734834558824,0.0009284285880837946,4.310233139991761
61,0.1697449447477565,0.9978458180147058,0.0009256109861020212,4.383373924096426
62,0.16522615052321377,0.9985064338235294,0.0009227434367839658,4.453713782628378
63,0.16404274368987365,0.9983340992647058,0.0009198262766492554,4.524768296877543
64,0.16263172381064472,0.9985638786764706,0.0009168598480395651,4.5957476178805035
65,0.16211202521534526,0.9982766544117647,0.0009138444990784454,4.66772876183192
66,0.1627642784048529,0.9983340992647058,0.0009107805836304658,4.738492695490519
67,0.16251412077861674,0.99853515625,0.000907668461259689,4.809634983539581
68,0.16335771934074514,0.9980755974264706,0.0009045084971874737,4.88079392115275
69,0.16367454344735427,0.9980181525735294,0.0009013010622496143,4.950807698567709
70,0.16031764184727387,0.9983053768382353,0.0008980465328528219,5.021611599127452
71,0.15764377572957208,0.9985064338235294,0.0008947452909305509,5.094813398520151
72,0.1600806945387055,0.9981904871323529,0.0008913977238981779,5.164526995023092
73,0.15824738276355407,0.9984489889705882,0.0008880042246075365,5.235638205210368
74,0.15661349016077378,0.9979894301470589,0.0008845651913008145,5.30682700475057
75,0.15462377141503728,0.9984777113970589,0.0008810810275638182,5.37655786673228
76,0.1587412615909296,0.9981043198529411,0.0008775521422786103,5.449137012163798
77,0.1583373454563758,0.9983053768382353,0.0008739789495755254,5.520562446117401
78,0.15524998307228088,0.9983340992647058,0.0008703618687845696,5.591139030456543
79,0.1564981643767918,0.9981617647058824,0.0008667013243862111,5.6630908966064455
80,0.15441063660032608,0.9983628216911765,0.0008629977459615654,5.735286196072896
81,0.15238108748898788,0.9987074908088235,0.0008592515681419813,5.807737322648366
82,0.1487644928343156,0.9986500459558824,0.0008554632305580354,5.8767747243245445
83,0.15129991533125148,0.9983628216911765,0.00085163317778794,5.947882608572642
84,0.15149355022346273,0.9985064338235294,0.0008477618593053693,6.01996781428655
85,0.14874484039404812,0.9989659926470589,0.0008438497294267117,6.091423336664835
86,0.15257943772217808,0.9984489889705882,0.0008398972472577539,6.164657306671143
87,0.15094197366167517,0.9984777113970589,0.0008359048766398031,6.234872806072235
88,0.14887299257166245,0.9991957720588235,0.0008318730860952522,6.305862394968669
89,0.14560410950113745,0.9987649356617647,0.000827802348772598,6.376963396867116
90,0.14762810836820042,0.9988223805147058,0.0008236931423909139,6.4486984491348265
91,0.14816858225009022,0.9987074908088235,0.000819545949183788,6.521608595053355
92,0.14972443221246495,0.9985638786764706,0.0008153612558427309,6.592377916971842
93,0.14588543378254948,0.9987936580882353,0.0008111395534600603,6.664609690507253
94,0.14734344973283656,0.9988223805147058,0.0008068813374712689,6.735008295377096
95,0.14577847894500284,0.9986500459558824,0.0008025871075968827,6.805885736147562
96,0.148007729474236,0.9982766544117647,0.0007982573677838172,6.8786404450734455
97,0.14630522973397198,0.9983628216911765,0.0007938926261462366,6.948489022254944
98,0.14704933192800074,0.9987649356617647,0.0007894933949059243,7.0204759041468305
99,0.1456462197444018,0.9988798253676471,0.0007850601903321716,7.0899181962013245
100,0.14331313967704773,0.9990234375,0.0007805935326811913,7.161868798732757
101,0.14402682684800205,0.9989372702205882,0.0007760939461350624,7.235326321919759
102,0.1442390263957136,0.9986787683823529,0.0007715619587402164,7.306778836250305
103,0.14166667005595038,0.9987362132352942,0.000766998102345468,7.376856843630473
104,0.140736604876378,0.9990808823529411,0.0007624029125396003,7.4472038070360815
105,0.14288189262151718,0.9989659926470589,0.0007577769285885109,7.518214889367422
106,0.1432373887475799,0.9991096047794118,0.0007531206933719271,7.590135943889618
107,0.14269199090845444,0.9986500459558824,0.0007484347533196961,7.6624122023582455
108,0.14263209262314966,0.9987936580882353,0.0007437196583476597,7.73551070690155
109,0.14357050376779892,0.9985638786764706,0.0007389759617931182,7.806842128435771
110,0.14094528994139502,0.9989947150735294,0.0007342042203498951,7.878805975119273
111,0.14265413713805816,0.9985064338235294,0.0007294049940030055,7.954399124781291
112,0.13957315858672648,0.9990234375,0.0007245788459629396,8.024260437488556
113,0.1427036948940333,0.9987936580882353,0.0007197263425995681,8.096362404028575
114,0.14214183127178864,0.9987074908088235,0.0007148480533756759,8.167021079858143
115,0.13848488646395066,0.9992532169117647,0.0007099445507801323,8.237687265872955
116,0.1370527652256629,0.9992532169117647,0.000705016410260708,8.311306901772817
117,0.13684124806348016,0.9993106617647058,0.0007000642101565435,8.382012975215911
118,0.13827977548627293,0.9990808823529411,0.0006950885316302773,8.452491907278697
119,0.13733476225067587,0.9991670496323529,0.000690089958599846,8.521386706829071
120,0.13903982827768607,0.9988223805147058,0.0006850690776699572,8.591114624341328
121,0.13868316657402935,0.9987362132352942,0.0006800264780632495,8.663122844696044
122,0.13710450381040573,0.9987362132352942,0.0006749627515511443,8.734807606538137
123,0.1375414755414514,0.9989085477941176,0.0006698784923843993,8.806852014859517
124,0.13922382759697297,0.9984202665441176,0.0006647742972233702,8.876844203472137
125,0.1386619630981894,0.9988511029411765,0.00065965076506799,8.949077951908112
126,0.13334209471940994,0.99951171875,0.0006545084971874737,9.022596331437429
127,0.13668091463692048,0.9985926011029411,0.0006493480970497568,9.093458557128907
128,0.13415031222736135,0.9992532169117647,0.0006441701702506753,9.16306369304657
129,0.13519188630230286,0.9987936580882353,0.0006389753244428972,9.233936576048533
130,0.1358473143156837,0.9986213235294118,0.0006337641692646103,9.3062526901563
131,0.13619275522582672,0.9989659926470589,0.0006285373162679804,9.378266859054566
132,0.13481773589463794,0.9989085477941176,0.0006232953788473809,9.44875871737798
133,0.13661064207553864,0.9991096047794118,0.0006180389721674102,9.518924216429392
134,0.13708152271368923,0.9985638786764706,0.0006127687130906971,9.590460550785064
135,0.13665959699188962,0.9988798253676471,0.0006074852201055121,9.66169980764389
136,0.13328355989035437,0.9990808823529411,0.0006021891132531825,9.734089481830598
137,0.13272451872334762,0.9991670496323529,0.0005968810140553292,9.804873196283976
138,0.13354692651945002,0.9988223805147058,0.000591561545440928,9.876520669460296
139,0.13379211329361973,0.9992244944852942,0.0005862313316732063,9.945808525880178
140,0.13363560771240907,0.9988223805147058,0.0005808909982763825,10.016904878616334
141,0.13347459694041924,0.9988798253676471,0.0005755411719622584,10.090038565794627
142,0.13153057720731287,0.9991383272058824,0.0005701824805566722,10.158817330996195
143,0.1328657659537652,0.9991670496323529,0.0005648155529258194,10.229793699582418
144,0.13189235066666322,0.9990521599264706,0.0005594410189024533,10.301359709103902
145,0.13156870380043983,0.9991957720588235,0.0005540595092119709,10.371971559524535
146,0.1316809301428935,0.9992819393382353,0.0005486716553983948,10.444158375263214
147,0.13256510084166245,0.9991096047794118,0.0005432780897502588,10.515198047955831
148,0.13204385033425162,0.9989947150735294,0.0005378794452264051,10.585420227050781
149,0.13437831883921342,0.9986787683823529,0.0005324763553817053,10.655239816506704
150,0.13121486477115574,0.9991383272058824,0.0005270694542927088,10.726863427956898
151,0.13005620306905577,0.9991096047794118,0.0005216593764832311,10.797751744588217
152,0.1290035881102085,0.9992244944852942,0.0005162467568498903,10.868797461191813
153,0.1318115024443935,0.9988798253676471,0.0005108322305875987,10.941111214955647
154,0.1300712059087613,0.9989947150735294,0.0005054164331150199,11.011959238847096
155,0.12850773838513038,0.9994542738970589,0.0005,11.082670259475709
156,0.13180910182349823,0.9990521599264706,0.0004945835668849801,11.15699787537257
157,0.13013200615258777,0.9991670496323529,0.0004891677694124013,11.229456206162771
158,0.12906282000681935,0.9991957720588235,0.0004837532431501098,11.301879374186198
159,0.13051983210093834,0.9989659926470589,0.00047834062351676893,11.371909034252166
160,0.12695884069099145,0.9997414981617647,0.00047293054570729125,11.442484990755718
161,0.12792176490320878,0.9991670496323529,0.0004675236446182947,11.51489589214325
162,0.12716642591883154,0.9991670496323529,0.00046212055477359496,11.586772366364796
163,0.12927456791786587,0.9991670496323529,0.0004567219102497413,11.659381397565205
164,0.12954164953792796,0.9989659926470589,0.0004513283446016052,11.729248909155528
165,0.12910271129187414,0.9992819393382353,0.0004459404907880292,11.801401003201802
166,0.12839687265017452,0.9989659926470589,0.0004405589810975468,11.87464728752772
167,0.12792497895219745,0.9991957720588235,0.00043518444707418076,11.944867785771688
168,0.12716101241462371,0.9990521599264706,0.00042981751944332785,12.016307906309764
169,0.1300061974017059,0.9986787683823529,0.00042445882803774173,12.08916719754537
170,0.12655594177982388,0.9993968290441176,0.00041910900172361764,12.159954941272735
171,0.12604381823364427,0.9994542738970589,0.0004137686683267938,12.232509525616964
172,0.12589388713240623,0.9993681066176471,0.0004084384545590719,12.302868596712749
173,0.1249139035011039,0.9996266084558824,0.00040311898594467085,12.373004806041717
174,0.12597625768359969,0.9990521599264706,0.00039781088674681754,12.444156734148661
175,0.12814875582561774,0.9989659926470589,0.0003925147798944881,12.514704008897146
176,0.126252889414044,0.9994255514705882,0.00038723128690930304,12.588722296555837
177,0.12691045990761587,0.9990808823529411,0.00038196102783259007,12.660336049397786
178,0.12761983231586568,0.9993393841911765,0.00037670462115261914,12.732362266381582
179,0.12469593260218115,0.9993681066176471,0.00037146268373201965,12.801976764202118
180,0.1276467961861807,0.9990234375,0.0003662358307353897,12.873428507645924
181,0.12578444402007496,0.9996553308823529,0.00036102467555710287,12.947270623842876
182,0.12799392180407748,0.9989947150735294,0.00035582982974932464,13.017206108570099
183,0.12615995372042937,0.9989659926470589,0.0003506519029502432,13.089023915926616
184,0.12520027467433145,0.9993393841911765,0.00034549150281252633,13.16060361067454
185,0.12572465880828745,0.9992532169117647,0.00034034923493201,13.232605350017547
186,0.12532748523003914,0.9993968290441176,0.0003352257027766298,13.306021237373352
187,0.12568336330792484,0.9993393841911765,0.00033012150761560087,13.376236581802369
188,0.12750761605360927,0.9990234375,0.0003250372484488559,13.44661513964335
189,0.1251287195174133,0.9990808823529411,0.0003199735219367508,13.516011508305867
190,0.12582098539261258,0.9992819393382353,0.0003149309223300429,13.586670470237731
191,0.12502194086418433,0.9994542738970589,0.000309910041400154,13.660860800743103
192,0.1247138955137309,0.9993681066176471,0.00030491146836972283,13.73212076028188
193,0.12381220389814938,0.9993968290441176,0.00029993578984345673,13.803412485122681
194,0.12348877244135913,0.9994542738970589,0.000294983589739292,13.874721535046895
195,0.1249046310344163,0.9992532169117647,0.0002900554492198677,13.9461514433225
196,0.12245902462917216,0.9995978860294118,0.00028515194662432405,14.01882482767105
197,0.1232238567489035,0.9991957720588235,0.0002802736574004319,14.088951392968495
198,0.12467523379360929,0.9992819393382353,0.00027542115403706064,14.159447419643403
199,0.12321938289438977,0.9994829963235294,0.0002705950059969948,14.230688202381135
200,0.12238390086328282,0.9993681066176471,0.000265795779650105,14.302409601211547
201,0.12336842628086314,0.9991096047794118,0.0002610240382068818,14.374023028214772
202,0.12337639204719487,0.9992819393382353,0.0002562803416523405,14.44384045600891
203,0.11972184062880628,0.9995404411764706,0.000251565246680304,14.512597107887268
204,0.12305459818419288,0.9993681066176471,0.000246879306628073,14.582921715577443
205,0.1220516084748156,0.9991096047794118,0.00024222307141148907,14.653958145777384
206,0.12275442546781372,0.9991096047794118,0.00023759708746039977,14.726061503092447
207,0.12389245475916301,0.9992244944852942,0.00023300189765453194,14.796358116467793
208,0.1224141153780853,0.9991670496323529,0.00022843804125978356,14.867027274767558
209,0.12095298026414479,0.9997127757352942,0.00022390605386493756,14.938897597789765
210,0.1200065194245647,0.9996553308823529,0.00021940646731880887,15.009087999661764
211,0.122412370846552,0.9995691636029411,0.00021493980966782845,15.081415855884552
212,0.12235238600303144,0.9991670496323529,0.00021050660509407576,15.152670804659525
213,0.12319517617716509,0.9990234375,0.00020610737385376348,15.22413641611735
214,0.12264101119602427,0.9993393841911765,0.00020174263221618284,15.295857191085815
215,0.12037294423755478,0.9993106617647058,0.00019741289240311755,15.366378621260326
216,0.12189397084362366,0.9993968290441176,0.00019311866252873128,15.439504961172739
217,0.12017027595463921,0.9992532169117647,0.00018886044653993966,15.511178580919902
218,0.12242463888490901,0.9993681066176471,0.000184638744157269,15.579948274294535
219,0.12050375276628662,0.9995691636029411,0.00018045405081621214,15.651587923367819
220,0.11922089558313875,0.9995404411764706,0.00017630685760908622,15.721911835670472
221,0.1200156750924447,0.9993106617647058,0.00017219765122740216,15.79432323773702
222,0.12213772360016317,0.9994255514705882,0.00016812691390474788,15.86391863822937
223,0.12097539862289149,0.9994829963235294,0.00016409512336019698,15.934087999661763
224,0.12258088172358625,0.9993106617647058,0.00016010275274224624,16.004278115431468
225,0.12186114183243583,0.9994829963235294,0.00015615027057328847,16.075602316856383
226,0.12046129913891063,0.9991383272058824,0.00015223814069463077,16.148828661441804
227,0.11951727047562599,0.9996266084558824,0.00014836682221206,16.217816178003947
228,0.12031307904159322,0.9993393841911765,0.00014453676944196475,16.288796989123025
229,0.12113189215169233,0.9991670496323529,0.00014074843185801883,16.360381678740183
230,0.12030485842157812,0.9992244944852942,0.00013700225403843458,16.43072077433268
231,0.1192521700525985,0.99951171875,0.00013329867561378872,16.504196413358052
232,0.11887457353227279,0.9997989430147058,0.0001296381312154305,16.574303340911865
233,0.11830763474983327,0.9996553308823529,0.00012602105042447482,16.644585279623666
234,0.1189473374363254,0.9994829963235294,0.0001224478577213897,16.714219756921132
235,0.11947193303528954,0.9993968290441176,0.00011891897243618183,16.784635583559673
236,0.12097490118706927,0.9993106617647058,0.00011543480869918555,16.857150292396547
237,0.11835581371012856,0.9992244944852942,0.00011199577539246347,16.92881857951482
238,0.11839436016538564,0.9996553308823529,0.00010860227610182222,17.000307802359263
239,0.1183582298895892,0.99951171875,0.00010525470906944917,17.071887270609537
240,0.1183048872386708,0.9995978860294118,0.00010195346714717812,17.142889904975892
241,0.11947656839209445,0.99951171875,9.869893775038557e-05,17.215638363361357
242,0.11879171628285856,0.99951171875,9.549150281252633e-05,17.288009015719094
243,0.11868460301090689,0.9993393841911765,9.233153874031102e-05,17.35815247297287
244,0.11934738496647161,0.99951171875,8.921941636953435e-05,17.429222706953684
245,0.11912351101636887,0.99951171875,8.615550092155477e-05,17.49969187180201
246,0.11878277010777417,0.9992532169117647,8.31401519604349e-05,17.571200315157572
247,0.11696440200595294,0.9995978860294118,8.017372335074486e-05,17.642992413043977
248,0.11914701913209523,0.9993106617647058,7.725656321603413e-05,17.712550083796184
249,0.11640555039048195,0.9996266084558824,7.43890138979788e-05,17.78199713230133
250,0.1197194866836071,0.9994255514705882,7.157141191620536e-05,17.852768504619597
251,0.1174596254439915,0.9993106617647058,6.880408792879905e-05,17.92647774219513
252,0.1167148991542704,0.9994255514705882,6.60873666934993e-05,17.997381365299226
253,0.1183794189025374,0.9994542738970589,6.342156702958851e-05,18.06833715836207
254,0.1205392149003113,0.9992244944852942,6.080700178047677e-05,18.139060525099435
255,0.11741668774801142,0.9995691636029411,5.8243977776988585e-05,18.21034073829651
256,0.11929806540994083,0.9994255514705882,5.573279580135448e-05,18.28374377091726
257,0.1188103953266845,0.9993106617647058,5.3273750551913246e-05,18.355544658501945
258,0.11620564714950674,0.9997702205882353,5.086713060852788e-05,18.426745156447094
259,0.11801519135341924,0.9996266084558824,4.851321839871908e-05,18.49787276585897
260,0.11717893227058299,0.9994829963235294,4.621229016452155e-05,18.568998559316
261,0.11851119622588158,0.9992532169117647,4.3964615930065124e-05,18.640737835566203
262,0.11657064473804306,0.9996553308823529,4.1770459469887e-05,18.711935142676037
263,0.11756737026221611,0.9993106617647058,3.963007827797621e-05,18.783091282844545
264,0.11770652256467763,0.9993968290441176,3.754372353755558e-05,18.854767481486004
265,0.11753390860908172,0.99951171875,3.551164009160429e-05,18.9231760263443
266,0.11766943072571474,0.99951171875,3.3534066414124486e-05,18.997757279872893
267,0.11810348117176224,0.9995691636029411,3.161123458215553e-05,19.068393536408742
268,0.11951507781358327,0.9991383272058824,2.9743370248538015e-05,19.140193021297456
269,0.11705307772054392,0.9998276654411765,2.7930692615433406e-05,19.21356833378474
270,0.11882295459508896,0.9993106617647058,2.617341440859883e-05,19.2854584813118
271,0.11812054563094587,0.9995978860294118,2.4471741852423235e-05,19.35809672276179
272,0.11645043400280616,0.9994255514705882,2.282587464572594e-05,19.429842241605122
273,0.11674442229902043,0.9996553308823529,2.12360059383212e-05,19.499634691079457
274,0.1163117028772831,0.9995691636029411,1.9702322308350672e-05,19.571626301606496
275,0.11594736313118655,0.9996266084558824,1.8225003740388545e-05,19.64329504966736
276,0.11852391239474802,0.9992819393382353,1.680422360431877e-05,19.716812499364217
277,0.11576971915714881,0.9996553308823529,1.544014863498977e-05,19.78751027584076
278,0.11609462780110977,0.9995691636029411,1.4132938912647276e-05,19.858542466163634
279,0.11740605270161349,0.9994829963235294,1.288274784414789e-05,19.929757237434387
280,0.11696585947099854,0.9997127757352942,1.1689722144956671e-05,20.00269685983658
281,0.11888859289533951,0.9993106617647058,1.055400182192906e-05,20.077358376979827
282,0.11657342446200988,0.9991096047794118,9.475720156880418e-06,20.14873339732488
283,0.11691184867830838,0.99951171875,8.45500369094504e-06,20.219791066646575
284,0.11632050223210279,0.9994829963235294,7.4919722097258055e-06,20.29077306588491
285,0.11555480146232773,0.9997989430147058,6.58673872923693e-06,20.362015354633332
286,0.11616747563376147,0.9996840533088235,5.739409482640901e-06,20.43365874290466
287,0.11737526624518282,0.9996266084558824,4.950083907781733e-06,20.50568336645762
288,0.11462727189064026,0.9997989430147058,4.218854635515301e-06,20.57780681848526
289,0.11628419752506648,0.9996553308823529,3.545807478838814e-06,20.649827591578166
290,0.11813881379716537,0.9994255514705882,2.9310214228202015e-06,20.721698689460755
291,0.11617932205691058,0.9996553308823529,2.3745686153290315e-06,20.794341206550598
292,0.1170795338557047,0.9995404411764706,1.8765143585693922e-06,20.867171756426494
293,0.1166086963870946,0.9996840533088235,1.4369171014165793e-06,20.93947547674179
294,0.11626040716381635,0.9994542738970589,1.0558284325578037e-06,21.00959184964498
295,0.11729179585681242,0.9995978860294118,7.332930744380905e-07,21.080919420719148
296,0.11691440444658785,0.9994542738970589,4.6934887801164396e-07,21.15354540745417
297,0.11697142417816554,0.9993681066176471,2.6402681830023365e-07,21.22431441148122
298,0.11652468583163093,0.99951171875,1.173509907579362e-07,21.294887415568034
299,0.11777383987517918,0.9992819393382353,2.933860844345215e-08,21.364881062507628
300,0.1177344370414229,0.9993968290441176,0.0,21.435038749376933
