run_id,arm,budget,seed,min_likelihood,n_train,best_val_macro_auroc,best_step,total_steps,flag_best_at_first_eval,test_macro_auroc,test_n_labels,test_e3_macro_auroc,sph_e3_macro_auroc,e3_degradation,sph_auroc_AF,sph_auroc_PR_PROL,sph_auroc_CRBBB,sph_auroc_IRBBB,sph_auroc_CLBBB,sph_auroc_LAFB,sph_auroc_LVH,sph_auroc_IMI,sph_auroc_ASMI,test_auroc_AF,test_auroc_PR_PROL,test_auroc_CRBBB,test_auroc_IRBBB,test_auroc_CLBBB,test_auroc_LAFB,test_auroc_LVH,test_auroc_IMI,test_auroc_ASMI,train_minutes_last_session
C0_b0.01_s0_lik0,C0,0.01,0,0.0,175,0.7036700485394036,960,2000,False,0.7143290760775144,71,0.8646812113390847,0.8990743365426144,-0.03439312520352966,0.9284013864140118,0.8891583562398305,0.9234132503345027,0.7677128867269175,0.9725245026523613,0.968086846493369,0.9600270584718152,0.8708335302823217,0.8115112112684004,0.8186544991511036,0.8646626228988264,0.9212703841901603,0.7883337898917956,0.9433043117744611,0.9221300540881419,0.8727577630388905,0.7712717983928686,0.8797456786255157,2.3226049820582073
C0_b0.01_s1_lik0,C0,0.01,1,0.0,182,0.7200792731888995,1320,2000,False,0.6945489503015312,71,0.8656204345815941,0.8717041512173096,-0.006083716635715497,0.9657751676880062,0.8713683616635068,0.9628130401575754,0.6232684807947885,0.9852988869170903,0.9239556630512753,0.9037485790017882,0.7370438078905198,0.8720653737912355,0.9448635334670988,0.814150214081827,0.9810064262023217,0.7492209971236817,0.9816283167495854,0.8777225981711902,0.8067318925233644,0.7613217812276343,0.8739381516876424,2.3116002559661863
C0_b0.01_s2_lik0,C0,0.01,2,0.0,165,0.7044894291213082,800,2000,False,0.6850466225898018,71,0.8605906064046382,0.9019283283957085,-0.04133772199107022,0.9019535833804163,0.8319919669138944,0.9784748390653446,0.683354905731755,0.9870323688528119,0.9624298639917528,0.9632941642435909,0.9660084908869763,0.8428147724948335,0.8765466635797705,0.8078367824294324,0.9700369679380874,0.6650886864813039,0.9757808181315645,0.8883310291299812,0.8917814478444378,0.8131646679351483,0.8567483941720194,2.2891317923863728
C0_b0.01_s3_lik0,C0,0.01,3,0.0,186,0.6988059755930572,1000,2000,False,0.6947609947178083,71,0.8618491715125606,0.9046018022069189,-0.04275263069435831,0.9616966911498398,0.8106861538409871,0.8546004054232539,0.7591157000185519,0.9758541847038396,0.9600156381614898,0.9807875329186019,0.9100770863888166,0.9285828272568893,0.9362748881000154,0.739732001268633,0.9282148286346047,0.755273250239693,0.9540232863460475,0.9164726284896554,0.891835619535725,0.7623575140085769,0.8724585269900951,2.3370736996332804
C0_b0.01_s4_lik0,C0,0.01,4,0.0,173,0.7303365601596613,240,2000,False,0.6908894704305869,71,0.8349210129123832,0.8573876072317305,-0.022466594319347277,0.9100111792004095,0.731250619189068,0.8996514853077139,0.7145809276890563,0.9725216326491564,0.9511317871938981,0.8061609912426522,0.8681788798340435,0.8630009627795764,0.8832220764521274,0.7552529337139232,0.929873203427308,0.6744624024106287,0.9532372857932558,0.9210780033471585,0.761931903828761,0.7492712048830726,0.8859601023552144,2.354324197769165
C0_b0.05_s0_lik0,C0,0.05,0,0.0,866,0.8090835350736479,960,2000,False,0.795268349729907,71,0.9141187705818931,0.9454560182742823,-0.031337247692389214,0.9899053389736383,0.8786164419675015,0.9843638702415887,0.7629303833779966,0.9967899014153899,0.9868823329928222,0.9773066823571527,0.9520625052843357,0.9802467078581153,0.9592240314863405,0.8070884871550904,0.9739324212271974,0.8230764621284755,0.994282061912659,0.9567779960707269,0.9129696450105517,0.8605717477699742,0.9391460824760215,2.3482437332471213
C0_b0.05_s1_lik0,C0,0.05,1,0.0,873,0.8117028364212415,720,2000,False,0.8139077211159863,71,0.923325734646147,0.9455160694693154,-0.022190334823168456,0.9890164355976648,0.9548016328120671,0.9901201913413996,0.7186083805879444,0.9996335962575158,0.9739459478043802,0.9739383691415361,0.9358147130547553,0.9737653586265755,0.9710281936512836,0.9072956311449413,0.9888923438363737,0.8476150527325024,0.992174543946932,0.9217116592689611,0.8926458396141091,0.8423048351652616,0.9462635124549585,2.311529815196991
C0_b0.05_s2_lik0,C0,0.05,2,0.0,860,0.8239587780349312,1160,2000,False,0.8167946274251661,71,0.9183238885192212,0.9443153461998993,-0.02599145768067812,0.9865729473008147,0.9476501040237634,0.9887840747908281,0.7706296169389046,0.9985989601021722,0.973782637890088,0.9794572691318248,0.9128908494282265,0.9404716561924713,0.9532721098935021,0.9130094354582937,0.9932023908236595,0.8521777838652239,0.9949298645660586,0.9457723932183657,0.8959715104009648,0.7945796651130674,0.9219998433338555,2.3099670012791953
C0_b0.05_s3_lik0,C0,0.05,3,0.0,887,0.8218928886911191,440,2000,False,0.8084685066674488,71,0.9209611171443193,0.940346539735102,-0.019385422590782686,0.9853547645607275,0.9518118941392391,0.9888031974457187,0.7301148866384494,0.9929106137501854,0.978425640333746,0.9787029261614103,0.9359089156976221,0.9210860188888184,0.9548059114060811,0.8995847209007296,0.9931678413488114,0.8574125119846595,0.994152501381979,0.954967983700793,0.9142721208923728,0.7955863042765677,0.9247001584068794,2.2663556496302286
C0_b0.05_s4_lik0,C0,0.05,4,0.0,873,0.8172749453473245,640,2000,False,0.8167118448589875,71,0.9216330866568934,0.9366830599677662,-0.015049973310872877,0.9798771978114843,0.8350794325121698,0.9902160343174132,0.7822565620033975,0.9986367484777026,0.981457422474674,0.9858829421184822,0.9529109948131959,0.9238302051813764,0.9549088079436127,0.8218165239454488,0.9947312050856827,0.9054110738255035,0.9936601713653952,0.9545010793373596,0.9109276077781127,0.8236228536183733,0.9351184570125507,2.2874301155408223
C0_b0.1_s0_lik0,C0,0.1,0,0.0,1746,0.8401896345677428,840,2000,False,0.8425135600219924,71,0.9398231968360687,0.9530804560726432,-0.013257259236574503,0.9963613272101256,0.9242155399244715,0.9896408041851624,0.7559918450722172,0.9986142667859312,0.9917438633760196,0.9820003084780037,0.9657661604134531,0.9733899892084048,0.9749093224263004,0.8769822391373295,0.9941697761194029,0.9049616490891658,0.9926323244886678,0.9749690751655388,0.9294519709074464,0.8614251605482788,0.9489072536424878,2.3332353870073956
C0_b0.1_s1_lik0,C0,0.1,1,0.0,1739,0.8538893363176886,1040,2000,False,0.8465870241447214,71,0.941131832689305,0.9617277723729889,-0.020595939683683895,0.9940854665565647,0.9752025482883514,0.9923832111129615,0.7688086556318979,0.999813928125553,0.9884190610539455,0.9849241848659168,0.9672887147896817,0.984624180932027,0.9735459433040078,0.9035838883602918,0.9969423714759535,0.8868733735104779,0.9965536898839138,0.9700878022750976,0.9236438234850768,0.8807103497634691,0.9382452521454558,2.3010628819465637
C0_b0.1_s2_lik0,C0,0.1,2,0.0,1717,0.8585433723510008,800,2000,False,0.848004295279806,71,0.9502839282505976,0.9607100289913111,-0.010426100740713484,0.9969778130296841,0.9785591827208049,0.9920192489907488,0.8028928800851938,0.9991590890609827,0.9896320343726998,0.9902501908945672,0.941200907274641,0.9556989144924776,0.9789608735916036,0.9451018870916588,0.9956208540630183,0.893375051362827,0.9977283720287452,0.969454146353295,0.9222683335845644,0.8921150478008134,0.9579307883788536,2.294445788860321
C0_b0.1_s3_lik0,C0,0.1,3,0.0,1766,0.842561336086704,840,2000,False,0.8302845118861519,71,0.9457579675035611,0.9556976682475824,-0.009939700744021285,0.9924783055905659,0.9768333453672904,0.9867195745927104,0.7350798723415775,0.995889677076806,0.9882914344861572,0.9854678297429921,0.9629071268460223,0.9776118481841201,0.9691728404589185,0.9319745084046939,0.9962600193477058,0.9104018285166416,0.9954912935323383,0.9703818913871305,0.9216229838709679,0.8577826396445146,0.9587337023691402,2.326267139116923
C0_b0.1_s4_lik0,C0,0.1,4,0.0,1752,0.856830053717522,1040,2000,False,0.8476078025960473,71,0.9425105191319825,0.9565641987139739,-0.01405367958199144,0.9951685572312284,0.9479325381966192,0.9915296401150804,0.7880896263006983,0.9978651959494689,0.987917670966206,0.9861737111998461,0.9502070793785421,0.964193769088075,0.9765202963420282,0.9095157389787504,0.9971410309563294,0.9312936584029585,0.9915008291873963,0.9614106575468723,0.8948032861018993,0.8764956543833413,0.9439135202882657,2.3438318093617756
C0_b0.25_s0_lik0,C0,0.25,0,0.0,4326,0.8793993905303914,1680,2000,False,0.8746322789186104,71,0.9645952512729844,0.9639257062417522,0.0006695450312321771,0.9980654309183363,0.9842343968552751,0.993690500117722,0.7706276693160939,0.9991538273884406,0.9894640361355093,0.9831475800662276,0.9668216960337027,0.9901262193444634,0.9772502186551421,0.968903623533143,0.9978320204532891,0.9512609574030955,0.9973137783305693,0.9769458390938417,0.9355969249321676,0.9064969926897437,0.9697569063658676,2.454525951544444
C0_b0.25_s1_lik0,C0,0.25,1,0.0,4369,0.8896044528004627,1000,2000,False,0.8831098772675173,71,0.9587142261210411,0.9702772832422563,-0.011563057121215192,0.9979470593632443,0.9797789222164197,0.9954335904076629,0.8200947303928849,0.9990830339760546,0.9891374163069248,0.9890297985943304,0.9757789360227579,0.9862120619000262,0.9794657097288677,0.9469255470980018,0.9964673161967937,0.9159019312422956,0.997952943615257,0.9800868320842124,0.9411271480253242,0.9046233637264657,0.9658772433721516,2.30305871963501
C0_b0.25_s2_lik0,C0,0.25,2,0.0,4378,0.8940829627353152,1840,2000,False,0.8832331091632543,71,0.9616882760437506,0.9683442206414787,-0.006655944597728114,0.997969031441803,0.9864866498639043,0.9946252131917607,0.7913740776025356,0.9992581041715497,0.992364024310517,0.987930702891886,0.9767938613164004,0.9882963209829522,0.9810638215774039,0.9575305264827149,0.9976333609729132,0.9531357005889604,0.9967177998894416,0.9735168206844697,0.934383950105517,0.8958661848763618,0.965346319215973,2.2952775994936627
C0_b0.25_s3_lik0,C0,0.25,3,0.0,4384,0.8863292835003208,1680,2000,False,0.8847310687160677,71,0.9594342672528325,0.9670798723148288,-0.007645605061996297,0.99627380107301,0.9887268129436122,0.9896025588753813,0.7989265132203976,0.9994288693622374,0.9916068601624347,0.9869753731726963,0.9720411216172764,0.980136940406413,0.978472115038329,0.9556721772914685,0.9959749861802101,0.9472546568963155,0.9956899530127141,0.9650033956680977,0.9302574804039795,0.9015724130440265,0.965011227740352,2.3228418668111166
C0_b0.25_s4_lik0,C0,0.25,4,0.0,4396,0.8950480373937347,1520,2000,False,0.8839136995324284,71,0.961953750366144,0.96771187929478,-0.00575812892863603,0.9982425355295753,0.9880131713058972,0.9924841075233004,0.8029124883555263,0.9979135076700835,0.9878103604643107,0.9856831930900927,0.9674821131483589,0.9888654365658747,0.9824400627668878,0.9669560735807168,0.9971151188501935,0.9502337008628955,0.9967696241017137,0.9785587814402483,0.9315740880313537,0.8869014715551702,0.9670348321061152,2.285832103093465
C0_b0.5_s0_lik0,C0,0.5,0,0.0,8735,0.9120171033112657,2788,3400,False,0.9096466510432885,71,0.9701056253296864,0.9677837701989732,0.0023218551307131463,0.9987829641541233,0.9844718296260349,0.9931050482660403,0.788964472058875,0.9993102425631043,0.9877798863654715,0.988307541144682,0.9760039571767436,0.9933279904356841,0.9813596491228069,0.9611183793212814,0.998056592039801,0.9701196753869332,0.9978147457158651,0.9820454049334206,0.9433740955682847,0.9273726329917742,0.9696894528870088,3.3334189454714456
C0_b0.5_s1_lik0,C0,0.5,1,0.0,8752,0.911337354973372,2584,3400,False,0.9032140481959136,71,0.9708450886351864,0.9650989269497781,0.005746161685408313,0.9985494806380112,0.9882731047777049,0.9930106983501685,0.7651577046307868,0.9986774068564377,0.985143746584687,0.9883909444568216,0.9778041264086291,0.9908831298447561,0.9821217266038998,0.9694190057088488,0.9972187672747375,0.9636393987125051,0.9974606135986733,0.9837280797496908,0.9469706248115767,0.9270273887314601,0.9700201925252842,3.0978673179944356
C0_b0.5_s2_lik0,C0,0.5,2,0.0,8743,0.911998074382056,2516,3400,False,0.9006997560828814,71,0.9705655607718163,0.9716326543432822,-0.001067093571465838,0.9979030548432739,0.9898852632162234,0.9949063104761139,0.8132858245409718,0.998619050124606,0.9916982824589524,0.9915080956434147,0.9755852047925512,0.9913028029934332,0.9818966404280496,0.9673029654297496,0.9974692509673854,0.9544668538556361,0.9968991846323936,0.9843890222901357,0.9528941814892976,0.9283656951338015,0.9714062527198983,3.115711422761281
C0_b0.5_s3_lik0,C0,0.5,3,0.0,8716,0.9100585147993414,2856,3400,False,0.9142405644892365,71,0.9668585209136786,0.9694995769558594,-0.0026410560421807894,0.9972643554937439,0.990172399028104,0.9948270060124385,0.7994445973933544,0.9992078791154649,0.9917308402568575,0.9880857035678717,0.9750789071960833,0.9896845045388181,0.9824368472500901,0.9778286552489692,0.9974865257048093,0.9487356184084373,0.9970546572692095,0.9772308326663272,0.9357641505878806,0.9162549919798595,0.9689344091075253,3.2009438276290894
C0_b0.5_s4_lik0,C0,0.5,4,0.0,8705,0.9075770565399203,2380,3400,False,0.897165894329257,71,0.9719985245197422,0.9685842418502764,0.0034142826694658623,0.9984261593289583,0.9857696499126,0.9947392600164237,0.8118546188700223,0.9997670514065408,0.9886865559215342,0.9898426952599116,0.9657671590280418,0.9824050269084549,0.981864485260071,0.9714557564224549,0.9968991846323936,0.9727905423914532,0.997961580983969,0.9826032646923283,0.9473663136870667,0.9308114985734429,0.9662340940345016,3.175228540102641
C0_b1_s0_lik0,C0,1.0,0,0.0,17418,0.9264196456273686,5032,6800,False,0.9211727374783835,71,0.9761155517567759,0.9656613320285435,0.01045421972823235,0.9991095271898436,0.9917180628575555,0.9904572209556733,0.7616490951476464,0.9982368613644951,0.9909265324174087,0.9905758065652498,0.9755266194033476,0.9927522623556712,0.9852504244482174,0.9802618537900413,0.9975383499170813,0.9737963977537324,0.997987493090105,0.9864506779208809,0.9522794505577329,0.9376407403743767,0.9738345779588141,5.330624107519785
C0_b1_s1_lik0,C0,1.0,1,0.0,17418,0.9276751966509316,5712,6800,False,0.9215336308286384,71,0.9756743393251865,0.9661990007143451,0.009475338610841488,0.9990182585558308,0.9927033920646408,0.9921068227105934,0.7666475205441197,0.9988400403713784,0.9905420899397446,0.9904053819890739,0.9728276970416375,0.9926998032120866,0.9836201574317024,0.9816444655883286,0.9977629215035931,0.975251677852349,0.9982898009950248,0.9861626525018797,0.9467586486282785,0.9371849403677821,0.9743937890577402,5.238170786698659
C0_b1_s2_lik0,C0,1.0,2,0.0,17418,0.9300933498456816,5440,6800,False,0.9231917423339775,71,0.9761787525986588,0.9700988877083822,0.006079864890276676,0.9990884605540827,0.9928634157071685,0.9953328088481042,0.7925760249612622,0.9995814578659612,0.9914972054990903,0.9905137301274469,0.9757456488698013,0.9936912369425224,0.9846555538406133,0.9751228988265144,0.9975901741293532,0.977742774962334,0.9985316473189607,0.9869873147541779,0.9525126243593609,0.937619405054919,0.9748463801416959,5.232313386599222
C0_b1_s3_lik0,C0,1.0,3,0.0,17418,0.9236853592219362,5712,6800,False,0.925298535744096,71,0.9758423099409934,0.9644506637171142,0.011391646223879226,0.9990721022208701,0.9929048908799957,0.9939788330012231,0.7465612573588781,0.9988940920984029,0.9908608958968319,0.9906887247481239,0.9749287821362497,0.9921663951134528,0.9849513813860165,0.9784332381858548,0.9975728993919293,0.9781451171072456,0.9983157131011609,0.9837371752892381,0.9474157747965029,0.9374506620737543,0.9765588281372396,5.339046883583069
C0_b1_s4_lik0,C0,1.0,4,0.0,17418,0.9239327663273686,4624,6800,False,0.9190368050708786,71,0.9750114306422023,0.9725015967219927,0.0025098339202096476,0.9992923059092818,0.9927203515482664,0.9952963437254148,0.808765193933716,0.9991739174108745,0.9912091341032254,0.9913268172115491,0.982408738277097,0.9923215683785099,0.984340433194423,0.9762230415477324,0.9975728993919292,0.9732014450075333,0.997978855721393,0.9836310606611851,0.9499901077781128,0.936498330996146,0.9756667014813655,5.334972663720449
C1_b0.01_s0_lik0,C1,0.01,0,0.0,175,0.714315809118692,240,2000,False,0.679546812336943,71,0.8477509270793134,0.8541951360787351,-0.006444208999421663,0.9131602790695428,0.6578249546207875,0.8025751267665487,0.6718168911054377,0.9705202837476501,0.9870656985106241,0.9568269800193846,0.8991472497155613,0.8288187611530784,0.8517164428666976,0.7766462496035522,0.9014389856274184,0.6429983906314203,0.9721185737976783,0.9510932838535983,0.8705744083509196,0.803808160565735,0.8593638484168015,2.425110320250193
C1_b0.01_s1_lik0,C1,0.01,1,0.0,182,0.6988658387728093,480,2000,False,0.6772438295168627,71,0.8644736356370694,0.8869015283687169,-0.02242789273164758,0.9281628324182325,0.8714021127150791,0.9783165746903336,0.7271782840716804,0.9979886060872768,0.9343824931771878,0.9437884526400576,0.700799091393873,0.900095308124731,0.938303879199465,0.797548961306692,0.9753403123272527,0.8089902068209834,0.9909480375898286,0.8960016008149604,0.8025159217666565,0.7097746796307827,0.860839121277003,2.4035239736239116
C1_b0.01_s2_lik0,C1,0.01,2,0.0,165,0.7067038008392639,280,2000,False,0.6742537115337758,71,0.8616245849620588,0.8900470935241377,-0.02842250856207884,0.8860937869722476,0.7961186290692265,0.9628104560150224,0.7025015894582769,0.9939242032153602,0.9732929686095945,0.957763077467967,0.9489970913685747,0.7889220395409692,0.8745337500643103,0.7258910164922296,0.9425096738529575,0.757477571565539,0.9856015063571034,0.907277038007228,0.8598790322580646,0.8484785007864974,0.852973175274601,2.358398350079854
C1_b0.01_s3_lik0,C1,0.01,3,0.0,186,0.7230716591981734,240,2000,False,0.6719733036395684,71,0.8691616555719333,0.909528606297624,-0.04036695072569074,0.9717271261004149,0.8585365812703493,0.9754690792987212,0.6343115351427079,0.973894929182671,0.9457370903122059,0.9693761318000833,0.9358772929023135,0.9208276906691494,0.9227890106497917,0.8318416983824928,0.9847895936981758,0.7707249006985344,0.948996337755666,0.9104240946906303,0.8628914493518242,0.7169365584578056,0.8730612564624785,2.371427285671234
C1_b0.01_s4_lik0,C1,0.01,4,0.0,173,0.7320208832175584,280,2000,False,0.6929718516313123,71,0.8344712816572974,0.854046301113442,-0.019575019456144593,0.871302262158286,0.737083338230874,0.8803878510844785,0.7131096306977045,0.9936974729621781,0.9528479738370745,0.8811190515634313,0.8211817471893993,0.8356873822975518,0.8395489273035963,0.7656894227719633,0.8808647733554451,0.7348565265032188,0.9834076147042565,0.9056216498096,0.8060700557732892,0.7183970580534043,0.8757855066409038,2.38614137172699
C1_b0.05_s0_lik0,C1,0.05,0,0.0,866,0.8171121454210052,600,2000,False,0.8113489293022462,71,0.9180734437322015,0.952090111209674,-0.03401666747747256,0.9908249670418822,0.9273029215649069,0.9882892976300541,0.800543254721995,0.9970333733539336,0.9843787685651075,0.9733395028934093,0.9623432424749399,0.9447556726408374,0.9606517209445903,0.870683674278465,0.9924250276395798,0.7947926653883028,0.9930296434494196,0.960880084406607,0.8903682732891167,0.8732410483788067,0.926588855814925,2.3145512183507284
C1_b0.05_s1_lik0,C1,0.05,1,0.0,873,0.8195464764832052,720,2000,False,0.8019543848506907,71,0.9205411235968073,0.9430595549737587,-0.02251843137695142,0.9894148907915261,0.9549404990789825,0.9865499399904676,0.7200166109118374,0.9959542521489149,0.9740384119504308,0.9717253250920198,0.935068747957001,0.9598273168426472,0.9652724185831146,0.9126724548049477,0.9875794637921502,0.8611619983563896,0.9945498203427309,0.9474944820393413,0.8744841912873078,0.8322714162966929,0.9093838668685919,2.3856584787368775
C1_b0.05_s2_lik0,C1,0.05,2,0.0,860,0.836808930138284,560,2000,False,0.8260677126170134,71,0.9134259048997602,0.9384404382437488,-0.02501453334398862,0.9795742366513586,0.9380940227055583,0.9904918484658808,0.7120663485769478,0.9986568385001363,0.9767190907987496,0.9813302257030728,0.9579526669999818,0.9110786657920537,0.9554393682152595,0.8805899143672693,0.9937983692647872,0.7951436447062046,0.996251381978994,0.9125645783307865,0.9173481308411215,0.8473845807706706,0.9223131756227478,2.397757033507029
C1_b0.05_s3_lik0,C1,0.05,3,0.0,887,0.8195600840499893,680,2000,False,0.7995306498759776,71,0.9300116009794832,0.9534584167063831,-0.023446815726899883,0.9887707587852098,0.9600908087994533,0.9883959940047892,0.7664252274592369,0.995767223606733,0.9809844227867078,0.9848661072170524,0.9441042127555038,0.9717209949427623,0.9624877810361682,0.9235450364732002,0.9944288971807629,0.8826230995754007,0.9949989635157546,0.9487405709573358,0.9220610679831173,0.7983346813376082,0.9428843107560013,2.3648906707763673
C1_b0.05_s4_lik0,C1,0.05,4,0.0,873,0.8175508199304785,640,2000,False,0.8206841614013284,71,0.9200942454995622,0.9448804314401242,-0.024786185940562033,0.9919577967075685,0.9129203559140744,0.98866537650957,0.7508983162635747,0.9972318819089347,0.9800996320708375,0.9752442593576423,0.953573742028559,0.9533325222003569,0.9649669444873179,0.8620411116397082,0.9924854892205639,0.8928785440350637,0.9788989082365949,0.9325323194838584,0.8838346962616823,0.8320056945907207,0.9412045015405505,2.3550118962923685
C1_b0.1_s0_lik0,C1,0.1,0,0.0,1746,0.8445989311574549,1040,2000,False,0.8576349156061913,71,0.9414713025948335,0.9633241431194166,-0.02185284052458314,0.9959396926806418,0.9752502363413189,0.9926913557560341,0.7791493773879011,0.9985090333350872,0.9891751833524947,0.9802509335267986,0.9703611190075634,0.9885903566869098,0.9738321242990173,0.8889549635267999,0.9935478855721394,0.8904088481029996,0.994247512437811,0.9693025540275049,0.9145170711486283,0.8907980767179298,0.9576326875206712,2.3432938059171042
C1_b0.1_s1_lik0,C1,0.1,1,0.0,1739,0.8583661818642304,960,2000,False,0.857478690890493,71,0.9438428972541715,0.9583256951426817,-0.014482797888510257,0.9969234864618193,0.9739519123077156,0.9869153951728218,0.7670781102380919,0.9979163776732883,0.973080301073678,0.9814981748384775,0.965672956385175,0.9818945421330681,0.9719767711066521,0.9212059942911512,0.9953185461580984,0.897796534721271,0.9920104339414041,0.964509204686022,0.9196068548387097,0.8726708134769394,0.9594909220672968,2.3772287209828695
C1_b0.1_s2_lik0,C1,0.1,2,0.0,1717,0.8678997843228392,800,2000,False,0.842503981209836,71,0.9460772737790253,0.9589660526364846,-0.012888778857459315,0.997174354479648,0.9882633656682961,0.9947019909382735,0.7719633754482008,0.9961527607039162,0.9895239424836548,0.984392536355656,0.9504727108591349,0.9580494367915812,0.975491330966713,0.9471287266095781,0.9943857103372029,0.8971673400903986,0.9972014925373135,0.9717735089378836,0.9177084903527283,0.8815947957337119,0.932244068445698,2.361905884742737
C1_b0.1_s3_lik0,C1,0.1,3,0.0,1766,0.8550066500376589,840,2000,False,0.8493151045739101,71,0.9481309453906436,0.9597432374977147,-0.011612292107071154,0.9962422313007954,0.9713463647094974,0.9929541343409575,0.7633865397476806,0.9986601868372086,0.9858863248393077,0.9850553832267941,0.9652139265459053,0.9789440459312865,0.9749672017286619,0.9416478353948621,0.9972965035931454,0.9295088001643611,0.99601817302377,0.9525455383346674,0.9201038212239976,0.8674746934017614,0.9536159416505648,2.299363644917806
C1_b0.1_s4_lik0,C1,0.1,4,0.0,1752,0.8633682629471231,1280,2000,False,0.8479921359969269,71,0.9430322119600493,0.9504960523500741,-0.00746384039002479,0.997409769607062,0.9765383175184749,0.9835793819879521,0.7443044906900329,0.9978288425755408,0.9847686807528196,0.9847522369415739,0.9523511049004681,0.9329316461767424,0.976976899727324,0.9176528306374881,0.9964154919845218,0.9170105122585946,0.9949557766721946,0.9560382255208711,0.9195032220379862,0.8603758507458634,0.9483610980555991,2.359020753701528
C1_b0.25_s0_lik0,C1,0.25,0,0.0,4326,0.8831409195369199,1600,2000,False,0.8790749504623504,71,0.9672423253938679,0.9664420160603129,0.000800309333555016,0.9980528754448743,0.9856237311871471,0.9941263588282924,0.7880953701374624,0.9970831200761507,0.9894615617428684,0.9847575686601582,0.9692896055538949,0.9914879529119673,0.9777421927252148,0.965504083412623,0.9978579325594251,0.9541886385426654,0.998263888888889,0.9816542967328822,0.9387176854085016,0.9221241444052004,0.9691280658694101,2.3170188069343567
C1_b0.25_s1_lik0,C1,0.25,1,0.0,4369,0.8901791395472013,1680,2000,False,0.8864158548694331,71,0.9637097764025069,0.9668888669041945,-0.0031790905016876314,0.9981149888207996,0.9841611856190297,0.9951938394041542,0.7954883977798421,0.9992451891571279,0.9909986804975665,0.9863774590171739,0.9744061738348333,0.9780138880072226,0.9812342439676905,0.9566236520773865,0.9973569651741293,0.937166141624435,0.9973483278054174,0.9813147299231124,0.9383337729876395,0.9174148575285553,0.9665952965341968,2.3583247502644857
C1_b0.25_s2_lik0,C1,0.25,2,0.0,4378,0.891381522823221,1760,2000,False,0.8753453361192245,71,0.9629834969831533,0.968214631318151,-0.005231134334997667,0.9980916887594709,0.9908328113954297,0.995018519688295,0.7961521245263811,0.9989691905155961,0.9893709208335004,0.9902492388019629,0.9684064973859599,0.9868406899567631,0.9836426660492875,0.9652216143355534,0.9977456467661692,0.9428802561292974,0.9965536898839138,0.9754390113754882,0.9348926929454326,0.903308332218078,0.96716756314516,2.4042680541674297
C1_b0.25_s3_lik0,C1,0.25,3,0.0,4384,0.881652320887486,1400,2000,False,0.8832471029013292,71,0.9623326075985046,0.9637408285894469,-0.0014082209909422883,0.9977787073657168,0.9788118958183958,0.9938321685550049,0.7575924279065959,0.998530080025256,0.9894830498894858,0.9894374846475067,0.9783377194705213,0.9898639236265403,0.9786393219118176,0.9542647875039645,0.9959749861802101,0.9455896452540749,0.9967177998894416,0.9790469087292925,0.9396409594513114,0.9059228786388841,0.9651961808275453,2.362367375691732
C1_b0.25_s4_lik0,C1,0.25,4,0.0,4396,0.8912051741917669,1360,2000,False,0.8828929497953852,71,0.9624599194034827,0.9641000813689742,-0.0016401619654914379,0.998187001704647,0.9835205873018805,0.9910902210303263,0.7768104144343277,0.9991313456966694,0.9898135766538189,0.9893748369541414,0.9765781605652425,0.9723945879797146,0.982298580027782,0.9503102204249921,0.9970719320066335,0.9517146623750171,0.9968128109452736,0.9687234713429866,0.9397964086523968,0.9144841604648772,0.9609270283913868,2.338517689704895
C1_b0.5_s0_lik0,C1,0.5,0,0.0,8735,0.9068808003099573,2924,3400,False,0.9064784718606026,71,0.972205617209236,0.9715633331476047,0.0006422840616313596,0.9989628454566087,0.9902464498427469,0.9951087924014723,0.8112645881900115,0.9990557689456085,0.9866731816990794,0.9883393410376669,0.9839855507126446,0.990433480042602,0.9804175027010341,0.9759257056771329,0.9975210751796573,0.9674873305026708,0.9969682835820896,0.9830732009022776,0.9481930208019295,0.9291454040812527,0.9711190314550804,3.2811899264653523
C1_b0.5_s1_lik0,C1,0.5,1,0.0,8752,0.9129188698515034,2108,3400,False,0.8995092714770322,71,0.9693281796242973,0.9689803940839455,0.0003477855403517527,0.9985789377103645,0.9886685462028387,0.9953730640465376,0.7861214049028598,0.9997015196666971,0.991441987473843,0.9899630397650998,0.9836300439190696,0.9873450030681986,0.9810123733086382,0.9718175150650175,0.9977715588723052,0.9631214902068209,0.9983934494195688,0.9831520289116884,0.9511889508592101,0.9048192607505765,0.9726769892248507,3.2369850675264993
C1_b0.5_s2_lik0,C1,0.5,2,0.0,8743,0.9116727540250203,2856,3400,False,0.9020121475469681,71,0.9688167078823174,0.9675113896611427,0.001305318221174745,0.9975831317214038,0.9896547149883215,0.9916728016125048,0.7849624372881959,0.9960551805949517,0.990494946248378,0.9886904727901455,0.9773544169721872,0.9911344047341952,0.9790380459947523,0.9664506026006977,0.9979702183526811,0.9645168470072593,0.9963032061912659,0.9812086152950593,0.9439299442267108,0.9210050099209235,0.9689278813515065,3.240647625923157
C1_b0.5_s3_lik0,C1,0.5,3,0.0,8716,0.9148683465826678,2992,3400,False,0.9129304856246935,71,0.9708685663066636,0.9682339636885116,0.002634602618152071,0.998617690662108,0.988602891172169,0.9950731312342439,0.7844181592389614,0.9996900396538776,0.9905064065932405,0.9893401807833436,0.9757313353940299,0.9921258384646311,0.980330683747492,0.9749990088804313,0.9972360420121614,0.9643970004109026,0.9972792288557214,0.9830186276649931,0.9437297444980405,0.9236253750652181,0.9732013856250108,3.1756646156311037
C1_b0.5_s4_lik0,C1,0.5,4,0.0,8705,0.9144829799029613,2788,3400,False,0.9063211865728431,71,0.9721158434056432,0.9680275911435261,0.004088252262117065,0.9986452161231595,0.9898520159116898,0.990512579031693,0.7960934977787197,0.9987056285546185,0.9893155725770616,0.9875694789578013,0.9695708819963771,0.9919834493606156,0.9842343211400936,0.9752467887725975,0.9974347014925373,0.9730730379400081,0.998091141514649,0.982148487714958,0.9479716234549291,0.9195580873467979,0.9712844012742181,3.284284003575643
C1_b1_s0_lik0,C1,1.0,0,0.0,17418,0.926836844627104,4896,6800,False,0.9182957090873166,71,0.9759158571605818,0.9724215508656106,0.003494306294971272,0.9981778265509632,0.9918534028952022,0.9945170237568839,0.8096188799254227,0.9986348351422326,0.9912177293618724,0.990704148648314,0.9839559251465134,0.9931141863630913,0.9863983639450533,0.983136100539169,0.9972965035931454,0.9675258526229283,0.9977283720287452,0.9861535569623323,0.9501738204703044,0.9396443208288965,0.9751858234546626,5.474168082078298
C1_b1_s1_lik0,C1,1.0,1,0.0,17418,0.9274396320394047,5984,6800,False,0.9252111383272341,71,0.9766353191858976,0.9707550465612587,0.005880272624638971,0.999151539735659,0.9915022072516065,0.9929799757664853,0.8029318325414101,0.9989864105348252,0.9915190843392825,0.9906976744186047,0.9758278681376038,0.9931988263258497,0.98757524309307,0.9826653187440533,0.9972792288557214,0.9739462059991781,0.998289800995025,0.9877574037691915,0.9500607665058788,0.9356003080044301,0.9765435967065296,5.358727467060089
C1_b1_s2_lik0,C1,1.0,2,0.0,17418,0.9291185634414415,5848,6800,False,0.9222527057154308,71,0.9758794500748706,0.973473906625884,0.002405543448986691,0.9992269933021378,0.9932469351190606,0.9928479547947329,0.8213872092017586,0.9998053181159385,0.9909231464064265,0.9899169584830498,0.9812919542954075,0.992618689914443,0.9832632350671401,0.9830667221693625,0.9974692509673854,0.9764672647582524,0.9976765478164732,0.9876118751364331,0.9475759345794393,0.9361976969492433,0.9735865232301077,5.535289255777995
C1_b1_s3_lik0,C1,1.0,3,0.0,17418,0.9216045898327389,4760,6800,False,0.9245777412154605,71,0.9764343759898355,0.973288535535604,0.0031458404542314966,0.9984599021638876,0.9937693207978681,0.9963983369607037,0.8205690425684327,0.9994877044279366,0.9899122918970673,0.989239449385805,0.9778407422768811,0.9939200293418538,0.9860446570972886,0.982447272438947,0.9976679104477612,0.9775801260101357,0.9983502625760089,0.9854562322636979,0.9565755012059091,0.9322332066791188,0.971554215189653,5.485674027601878
C1_b1_s4_lik0,C1,1.0,4,0.0,17418,0.9215715641175698,5712,6800,False,0.9225007776786672,71,0.9755340531881074,0.970595707917518,0.004938345270589339,0.9990797683032243,0.9928561953329516,0.9953178208212979,0.7970390191375398,0.9994274343606351,0.9908304217979926,0.9906459757901892,0.9771713376309267,0.9929933980829048,0.9821667438390698,0.9844889787503964,0.9980911415146491,0.9763174565128065,0.9984625483692648,0.9857533532222464,0.9498205268314743,0.9292326849335792,0.9754730447194806,5.4262997031211855
S0_b0.01_s0_lik0,S0,0.01,0,0.0,175,0.6892194188912482,1000,2000,False,0.6841903227992879,71,0.8044430890258804,0.8391313980487057,-0.03468830902282538,0.8035830786020929,0.6127871148224209,0.9193474178673359,0.748266335108641,0.9682635045609134,0.9382688523975301,0.9425405448635555,0.8041786694592369,0.8149470647566247,0.6718340021608273,0.6054699888994609,0.8996251381978994,0.7929008012601014,0.9192146904367055,0.9344029687841082,0.82913777509798,0.7367357349144744,0.8506667014813656,2.363128379980723
S0_b0.01_s1_lik0,S0,0.01,1,0.0,182,0.687461736264497,1280,2000,False,0.6888561994359682,71,0.8113410797929965,0.8500085182960084,-0.03866743850301191,0.8234493386645805,0.7326925111286118,0.9741543824186426,0.6997198559155247,0.8957739202808777,0.9451481848636974,0.912378536786002,0.7989988555876814,0.8677610790184586,0.8222269383135259,0.6945567713288932,0.961054104477612,0.7274645596493631,0.7664800995024875,0.8930819326202432,0.8250984511606874,0.7784928342420241,0.8336140268421328,2.3724816997845966
S0_b0.01_s2_lik0,S0,0.01,2,0.0,165,0.7153443709311247,1040,2000,False,0.683362329314589,71,0.8134447996426721,0.8557221727915139,-0.042277373148841724,0.8032458917042123,0.5884541178801652,0.9747478163995428,0.763921112693417,0.975225175668113,0.9538270519356783,0.9506218116798912,0.9429950848189944,0.7484614923436101,0.7501446982559036,0.5979622581668254,0.8643846738529576,0.784464456923709,0.951034756771697,0.9125858012563971,0.8549046578233345,0.8032476235363486,0.8022742701968772,2.356884320576986
S0_b0.01_s3_lik0,S0,0.01,3,0.0,186,0.6717018997435912,240,2000,False,0.6643739622102243,71,0.7928521951016275,0.8390721227506361,-0.04621992764900862,0.7794348890047854,0.7043306293311751,0.8956657612596833,0.6234688713756885,0.9750893288497505,0.8638625633770093,0.963673001890856,0.8668850081986258,0.8792390514681507,0.7373147862324433,0.646269425943546,0.8950559701492538,0.6455237296260787,0.9550597705914871,0.7973059011860584,0.8762553700633102,0.7187752750801529,0.8641095270423174,2.2543296575546266
S0_b0.01_s4_lik0,S0,0.01,4,0.0,173,0.7081717167643146,600,2000,False,0.6749852795360997,71,0.8104566551067005,0.8560703236244973,-0.0456136685177968,0.7917043632684795,0.6278864285510389,0.9411905144740697,0.6974195318178847,0.971648195007151,0.9521621763820005,0.9581848544916873,0.8826138537136146,0.881822994914549,0.754813628646396,0.6086217491278147,0.8609297263681592,0.7959269278181071,0.8917305831951354,0.8926210919498411,0.8665421502864035,0.7613625122920533,0.8615615262763939,2.3227310220400494
S0_b0.05_s0_lik0,S0,0.05,0,0.0,866,0.8080838450060832,840,2000,False,0.8123645335895776,71,0.9090223161500748,0.936073333788221,-0.027051017638146213,0.9717900845562848,0.8398222108785853,0.9918903289900597,0.7775417798103479,0.9961771557311573,0.9865544108523214,0.9668378529169261,0.9403327783255364,0.9537134020327698,0.9507800843751607,0.8004479860450364,0.990308872305141,0.8483854951376524,0.9916908512990602,0.9597946833539499,0.8934560596924933,0.8088161419147868,0.9375206712273922,2.3530535260836283
S0_b0.05_s1_lik0,S0,0.05,1,0.0,873,0.8087605056653833,880,2000,False,0.8213090096262055,71,0.9158598867774495,0.933707895238834,-0.017848008461384568,0.9751757766284689,0.8693580751489832,0.980214053141456,0.7336498880612042,0.9862670346648554,0.980425210049889,0.977962102905977,0.9324640282381575,0.9678548883105158,0.955931342285332,0.8449988106565175,0.9939106550580431,0.8673126968908369,0.9803067993366501,0.9390568531858643,0.9015040887850467,0.8182347156680767,0.9414830191306771,2.280195160706838
S0_b0.05_s2_lik0,S0,0.05,2,0.0,860,0.8179157568565736,1280,2000,False,0.7996126185393305,71,0.9135567034959696,0.934662512956733,-0.021105809460763347,0.9660668409945866,0.8711814715122653,0.986912811030269,0.7756105137300806,0.9877441296476114,0.9806557192590575,0.986809709059542,0.9335312143619419,0.9234502070152423,0.9334806040026753,0.8871461703139867,0.9945584577114428,0.8471998698808383,0.9920190713101161,0.9568507603871061,0.8970243254446789,0.8085271453148608,0.9052039270980209,2.3443214217821757
S0_b0.05_s3_lik0,S0,0.05,3,0.0,887,0.8151882775141802,680,2000,False,0.8172609719365911,71,0.9161498824431666,0.933954039228118,-0.017804156784951397,0.968648620588079,0.8803416076582984,0.9805365828447389,0.736122626293436,0.9953424631324171,0.9840094329056713,0.9783623626368397,0.9464815812196546,0.9357410757739267,0.9462333436229872,0.826593720266413,0.992131357103372,0.9030355430762907,0.9899547401879492,0.9381654903102185,0.9125221397347,0.8020315103272644,0.9346810973593052,2.2741981585820517
S0_b0.05_s4_lik0,S0,0.05,4,0.0,873,0.8114140755019935,960,2000,False,0.8054640343476278,71,0.914131158915377,0.9385067961560188,-0.024375637240641845,0.9679917520197411,0.9041355952694795,0.9881890903243961,0.7626860062310725,0.9942360768969526,0.9821692661680721,0.9803362410241468,0.9323165661505605,0.9345005713197487,0.9385579050264959,0.8489285997462734,0.984711857379768,0.9030013011916176,0.9853510226644555,0.9286667151762109,0.9094791038589086,0.8099546721440251,0.918529253050638,2.3015064795811973
S0_b0.1_s0_lik0,S0,0.1,0,0.0,1746,0.8504459763939517,1400,2000,False,0.855197215912379,71,0.9384578402555243,0.9578798044888583,-0.019421964233334088,0.9923462316678014,0.9474576726550995,0.9886378123223402,0.8019499995708627,0.9940198699888549,0.9861855961176519,0.9787115902041096,0.9592095898956182,0.972399877977387,0.9719574780058652,0.9141690453536315,0.996121821448314,0.8801576838789207,0.9936256218905473,0.9546769264352761,0.9216300497437444,0.8601159477633796,0.9536659877800407,2.3184094230333963
S0_b0.1_s1_lik0,S0,0.1,1,0.0,1739,0.843235558591808,800,2000,False,0.8457754889303968,71,0.9315291121289201,0.9539350289939397,-0.02240591686501958,0.9937964492155243,0.9105958152054365,0.9875096905345729,0.7746399703697248,0.9976312906882745,0.9873876300163102,0.9854710668578468,0.9750422913278312,0.9733410567299351,0.9706455471523384,0.8613968839200762,0.9936688087341072,0.8518910080810848,0.9912503454947484,0.9632418928424168,0.9303022309315647,0.8894345558471384,0.9319307361568054,2.30731471379598
S0_b0.1_s2_lik0,S0,0.1,2,0.0,1717,0.8637148261241101,1160,2000,False,0.8461942468369521,71,0.939451124030144,0.9564285148775105,-0.01697739084736649,0.9935272308903281,0.9585572348989231,0.9935886274757522,0.7837526994382265,0.996473244395123,0.9857303078717462,0.9846197056510504,0.9529612584141601,0.9586463248622838,0.9704526161444668,0.9111857754519505,0.9944375345494749,0.915088686481304,0.9956294914317303,0.9727103495112663,0.9312490578836298,0.8247536255496268,0.9395529792678469,2.300853220621745
S0_b0.1_s3_lik0,S0,0.1,3,0.0,1766,0.8496797493463875,1160,2000,False,0.8486748152332482,71,0.946620137714959,0.9518620329651297,-0.005241895250170714,0.987216415315746,0.9743743881572428,0.9883723921694738,0.74322973300402,0.9952951080795372,0.9884737581544261,0.984710535285504,0.9594539175983186,0.9456320489218983,0.975468822349128,0.9401215112591184,0.9971496683250415,0.8985156142994111,0.9934615118850193,0.9639392175410513,0.9204877336448599,0.8822523114879056,0.9481848486430972,2.2490068674087524
S0_b0.1_s4_lik0,S0,0.1,4,0.0,1752,0.8504793791699308,1200,2000,False,0.8484111496121275,71,0.9343221387689375,0.9508598313546011,-0.01653769258566351,0.9937729077027829,0.9399241356960188,0.9766276939686113,0.8026028823497178,0.9961412806910968,0.987459778096468,0.9836712309986119,0.9547258103923824,0.9228127622957178,0.9706069609507639,0.8903673089121471,0.9938156440022112,0.9155038693329681,0.9840813294637921,0.96873559872905,0.9176566739523665,0.835557055493166,0.9325748080839731,2.3671781341234843
S0_b0.25_s0_lik0,S0,0.25,0,0.0,4326,0.879797434098067,1640,2000,False,0.8834692130603496,71,0.9640297791555211,0.9641234779425114,-9.369878699028167e-05,0.9963473230281871,0.9766736575561216,0.9939578153084605,0.7658071708170839,0.998687930201522,0.9906402842582266,0.9878292098202639,0.9767079804617728,0.9904599300309641,0.9761794515614549,0.9638092689502061,0.9974519762299613,0.9501352554444596,0.9972187672747373,0.9748265783792961,0.9450133780524571,0.9035148969019177,0.9681184396052014,2.3250575065612793
S0_b0.25_s1_lik0,S0,0.25,1,0.0,4369,0.8847184579542922,1440,2000,False,0.8849214642019522,71,0.9657811141233912,0.9680324822773638,-0.0022513681539726438,0.9973673345212744,0.9874194214633178,0.995434624064684,0.7974538793015231,0.999507316116503,0.9894624733612097,0.9908936150765768,0.9772242642041274,0.9775294123870586,0.9787293563821577,0.965870797653029,0.9977974709784412,0.9526948363237913,0.9965018656716418,0.9850469329840646,0.940677287458547,0.9127443621418333,0.9619671175170157,2.314295208454132
S0_b0.25_s2_lik0,S0,0.25,2,0.0,4378,0.8898024920074548,1560,2000,False,0.8752870082835111,71,0.9594169974893413,0.9665117743657977,-0.007094776876456432,0.996050518879086,0.9816270021845829,0.9925481942586095,0.8035547582405902,0.9984965966545329,0.99094189969802,0.9903448288994381,0.9671402540874959,0.9779019163898234,0.9780926840561814,0.952589795432921,0.9972187672747375,0.9571163196822353,0.9967782614704257,0.9729559290790463,0.9301726899306603,0.8937733839950192,0.9560551464828451,2.309168787797292
S0_b0.25_s3_lik0,S0,0.25,3,0.0,4384,0.8842274585957072,1560,2000,False,0.8904028869918968,71,0.9639262111076099,0.9655170909044813,-0.0015908797968714472,0.9976742192668568,0.9881238277386628,0.9939427698562642,0.781023485690254,0.9988032086635831,0.9900347092171907,0.9902677093984869,0.9671901848169308,0.982593703492104,0.9790412615115502,0.966301934665398,0.9965796019900498,0.9527590398575537,0.9918117744610282,0.9768730747774625,0.9370831135061802,0.9108649144550668,0.9640211847441991,2.31162885427475
S0_b0.25_s4_lik0,S0,0.25,4,0.0,4396,0.8913990358292007,1560,2000,False,0.8894996143071101,71,0.9645882704912316,0.9653925301557931,-0.0008042596645614353,0.9980601189872561,0.9832799641332108,0.9922294833437656,0.7810964720298258,0.9948048158653777,0.9907528040077868,0.9909080868841627,0.9756620981158804,0.9817389280348716,0.9822214076246334,0.9544084998414208,0.9973396904367053,0.9567867415422545,0.9963291182974019,0.9804536855126245,0.9461980893880012,0.902421946673339,0.9651352551047052,2.354936945438385
S0_b0.5_s0_lik0,S0,0.5,0,0.0,8735,0.9100230341158748,2992,3400,False,0.9006061085172665,71,0.972178687990652,0.9659304411356201,0.0062482468550318915,0.9981994968152558,0.9897193625249145,0.9938779365908843,0.7649448195543971,0.9983588365007008,0.9903694033796557,0.9890459841686042,0.9763095332408838,0.9925485974452838,0.9813467870556155,0.9698501427212178,0.9978665699281372,0.9711982947541433,0.9973569651741293,0.9823910354362221,0.9514810069339765,0.9255513725398923,0.9725660173725346,3.383819810549418
S0_b0.5_s1_lik0,S0,0.5,1,0.0,8752,0.9111015444246356,2788,3400,False,0.9057711156170547,71,0.9701688957027756,0.9703801930637156,-0.00021129736093994378,0.9983318121894332,0.9901873435235762,0.9956669097674845,0.8047302146280337,0.9993135909001766,0.988392754353238,0.9884351215536629,0.9790087884741236,0.989355202183711,0.979137727015486,0.9668718284173803,0.9974347014925373,0.9685745103410491,0.9980652294085129,0.9857472895292149,0.9480045975278866,0.9199595792675003,0.967724598325413,3.1282052397727966
S0_b0.5_s2_lik0,S0,0.5,2,0.0,8743,0.9113401189039205,2516,3400,False,0.902130374963517,71,0.9706961002241482,0.9711418537188778,-0.0004457534947296393,0.9979718081330493,0.9893674112607614,0.994904587714412,0.8073114750634958,0.997458612162117,0.9919300939800371,0.9898779226862722,0.9787787742471944,0.9926759982225608,0.982758398929876,0.9655932841738026,0.998065229408513,0.9640374606218325,0.9974174267551132,0.9834461180237212,0.952644520651191,0.9198800567131583,0.9724224067401256,3.2244511087735495
S0_b0.5_s3_lik0,S0,0.5,3,0.0,8716,0.9107945584074559,2720,3400,False,0.9105906707756218,71,0.9705413323305925,0.9667264015904681,0.0038149307401244004,0.9984629203065467,0.9852687574407635,0.9952107224688324,0.777916400106426,0.9993116775647066,0.990925751030259,0.9901818306455759,0.973224147033349,0.9900354077177539,0.9798676493286,0.9735668411037108,0.9965364151464898,0.9659849678126284,0.9972792288557214,0.9816967425841034,0.948661723696111,0.9194805043669521,0.9717979180810138,3.209822404384613
S0_b0.5_s4_lik0,S0,0.5,4,0.0,8705,0.9119808579657417,2856,3400,False,0.9055587716206787,71,0.9706020197706082,0.9662036598510029,0.004398359919605355,0.9987958214418513,0.9927510801176082,0.9925442893320852,0.7688377049212797,0.9997627464017335,0.9887420344091645,0.988758452202095,0.9755895321224356,0.9900512777107712,0.9844368986983588,0.975023786869648,0.998013405196241,0.9683390973839201,0.9983416252072969,0.979438016929831,0.9337857062104311,0.9279215325741839,0.970118108865563,3.2088768680890403
S0_b1_s0_lik0,S0,1.0,0,0.0,17418,0.9246345743928271,6664,6800,False,0.9227612490769223,71,0.975539900359437,0.9676922929508933,0.007847607408543733,0.9989822219324807,0.9935503587518492,0.992605275096331,0.7779936448077367,0.9991083856710307,0.9900529415840176,0.9885291883029712,0.9756933880396598,0.9927152323719645,0.9870639759222103,0.9736907310497939,0.9970892067440575,0.974635323928229,0.997978855721393,0.9857957990734677,0.9492929416641545,0.937394414413366,0.976917854718262,5.42410284280777
S0_b1_s1_lik0,S0,1.0,1,0.0,17418,0.9264376731309849,5440,6800,False,0.9230645588196685,71,0.9758338086207652,0.9662605167802195,0.009573291840545672,0.9991584211009218,0.9932872348821317,0.9937279988974325,0.7565422465796112,0.999340377596755,0.9917174264441208,0.9893864524839143,0.9800852950007357,0.9930991980363529,0.9868678293975408,0.9789089755788138,0.997892482034273,0.9714337077112725,0.9977715588723052,0.9869751873681146,0.9533652396744047,0.93515226629582,0.9741370306543422,5.26792277097702
S0_b1_s2_lik0,S0,1.0,2,0.0,17418,0.9276327495224446,5984,6800,False,0.9235532041263831,71,0.9763109853541676,0.9699254704489982,0.006385514905169365,0.9975451031238982,0.9922674829607564,0.9952452064155646,0.7982080384665409,0.9994743110796475,0.9898646272809342,0.9894637624033864,0.9741601817744848,0.993100520535771,0.9840124504810412,0.9819566682524581,0.998073866777225,0.9773104711683331,0.9983934494195689,0.9884729195469208,0.94940599562858,0.932659913068271,0.9765131338451094,5.255721120039622
S0_b1_s3_lik0,S0,1.0,3,0.0,17418,0.93028839817447,5848,6800,False,0.9207247303578312,71,0.9750992651639332,0.9703519886695864,0.004747276494346808,0.9990992655048025,0.9929646688618843,0.9948379168365501,0.7961773445912533,0.9994929661004788,0.9920345393957168,0.9900550119106785,0.9773960259133828,0.9911101589115301,0.9812953387868498,0.9794986917221693,0.9973656025428413,0.9763088960416381,0.9978579325594251,0.9855896335103932,0.9518625640639132,0.9319015394402775,0.9742131878078925,5.26219007174174
S0_b1_s4_lik0,S0,1.0,4,0.0,17418,0.9251295467029257,5576,6800,False,0.9237279702937686,71,0.976558064541651,0.9727634152173056,0.003794649324345367,0.9991248593545521,0.993858987770701,0.9934433412388954,0.8117242271733656,0.9996723413007811,0.9905733454257336,0.99089209172841,0.9840887408868098,0.9914928020765005,0.9842278901064979,0.9851926736441484,0.9974174267551134,0.9725380084919873,0.9984279988944168,0.985774576147857,0.9484615239674404,0.9404628212662706,0.9765196616011281,5.347833895683289
S1_b0.01_s0_lik0,S1,0.01,0,0.0,175,0.6955569660677785,320,2000,False,0.6749638426591248,71,0.8100068449427988,0.8407502838872691,-0.03074343894447029,0.8070215881708124,0.6126478287663067,0.9154755683677982,0.7317165588211798,0.9177629281686029,0.9657145551068079,0.9661769102309966,0.8547598298627038,0.7954767874902134,0.7274560117302052,0.6900669996828417,0.9031059977888336,0.7012438364607588,0.8854080292979547,0.913310412573674,0.8823437971058185,0.7345537136063091,0.852572806238794,2.4177497307459515
S1_b0.01_s1_lik0,S1,0.01,1,0.0,182,0.7159015735502359,920,2000,False,0.6953444322123612,71,0.8368137774858894,0.8564746175318736,-0.01966084004598423,0.8352015032764957,0.7291696401734904,0.9705295769471513,0.6335326510711594,0.9811510147852999,0.9500803005527533,0.9015197302150395,0.8199175011201126,0.8871696396453587,0.8430667026804548,0.6561756660323501,0.9713498479823107,0.6999255239008355,0.966797954671089,0.9208566785515049,0.8140403602652999,0.8020799996896679,0.8570312635994917,2.378412663936615
S1_b0.01_s2_lik0,S1,0.01,2,0.0,165,0.7068141888665063,1360,2000,False,0.7065302581636044,71,0.8356147310161351,0.8675311745469249,-0.031916443530789707,0.8693456908166372,0.556413959166265,0.981425527882898,0.7788029646120236,0.9679736342372248,0.9585122492854214,0.9336090593515487,0.937555964025908,0.824141521544397,0.8113391984359726,0.6192515065017444,0.9278261470425649,0.7749152513354335,0.9391670121614151,0.934054306434791,0.8568807469098583,0.8109380364135714,0.8461603739098646,2.39806205034256
S1_b0.01_s3_lik0,S1,0.01,3,0.0,186,0.6913063286170107,840,2000,False,0.6657441263405646,71,0.8318400621253302,0.8675416477999933,-0.03570158567466308,0.8764988700073885,0.7150563273146756,0.9506030814464307,0.665164026152283,0.9828464691785572,0.9529482518546224,0.9756354742087634,0.9296329558792102,0.7594893741580088,0.8079950609661984,0.6718898667935299,0.9364289662797125,0.7512113066703192,0.9486076561636263,0.8986817531349294,0.8882155373831776,0.7886542650273383,0.7948761467091405,2.3399911443392436
S1_b0.01_s4_lik0,S1,0.01,4,0.0,173,0.7267338363583531,1400,2000,False,0.6957562499146565,71,0.8393941889568322,0.8836168389495032,-0.044222649992671004,0.8569185789618555,0.7405498734755354,0.9670718793607406,0.7379893732417753,0.9680458626512133,0.9616203469046389,0.9218688054474931,0.8876312262787427,0.9108556042235341,0.7893675721561969,0.6591589359340311,0.9349347014925373,0.8387207231886042,0.9445394555002764,0.9181098256081884,0.8264550987337956,0.7671560213120445,0.8761053666858147,2.394580574830373
S1_b0.05_s0_lik0,S1,0.05,0,0.0,866,0.8087783614519487,1040,2000,False,0.7884991587756092,71,0.9083645392680901,0.9388526301649088,-0.030488090896818698,0.9698279900135696,0.9061467213624006,0.9814760622261526,0.7715838530845394,0.9977269574617691,0.9866708375376302,0.9574220378970941,0.946123411453843,0.9326958004471811,0.955822014714205,0.8314402949571836,0.9839604063018241,0.7945957745514314,0.9921054449972361,0.961889689296369,0.8718015149231233,0.8525748821223599,0.9310908315490801,2.3664511919021605
S1_b0.05_s1_lik0,S1,0.05,1,0.0,873,0.8101362589503391,800,2000,False,0.8136200398823781,71,0.9187475472833628,0.9406358465050624,-0.021888299221699548,0.9777036521940692,0.914746019139029,0.9905518579984954,0.7384505967318229,0.9977379591407212,0.9832395061008102,0.9603965656115576,0.9514696610901809,0.9514268005388744,0.9529376961465247,0.8890144307009198,0.9889873548922057,0.850534173400904,0.9903866086235489,0.9611681098256082,0.8937269181489298,0.8246314323563695,0.9173412014552544,2.3695037841796873
S1_b0.05_s2_lik0,S1,0.05,2,0.0,860,0.8258766131641521,1000,2000,False,0.8001011776067489,71,0.9153655089855588,0.9427964854320765,-0.027430976446517708,0.988013748243441,0.9131382265081767,0.9924266821332385,0.7911926515861242,0.9912326185430906,0.9876957570156845,0.9798487696107274,0.9299857997005487,0.9116341155476558,0.9475259813757267,0.8689640818268316,0.9954135572139303,0.8460313655663609,0.9953444582642343,0.9515480608309685,0.9089750716008441,0.8143633249737673,0.9101236792173656,2.37355109055837
S1_b0.05_s3_lik0,S1,0.05,3,0.0,887,0.8119680314175598,760,2000,False,0.8090276623378776,71,0.9212179262410187,0.9444143914274513,-0.02319646518643259,0.9766386703753605,0.9206044292797928,0.9873390222753089,0.7360098127179109,0.9955605833759847,0.9882958623466723,0.9792986505039426,0.968746692089175,0.9472357998829147,0.9448796110510882,0.8452168569616237,0.9938329187396352,0.8847760580742364,0.9881236180210061,0.9665102233864513,0.9279704929152848,0.8019481086239301,0.9377034483959127,2.354515278339386
S1_b0.05_s4_lik0,S1,0.05,4,0.0,873,0.8057388013056529,960,2000,False,0.7969811393248115,71,0.9116457003017726,0.942795636555592,-0.031149936253819344,0.9888685466073662,0.9256063015396189,0.9802714498188229,0.7614328429945328,0.9939251598830952,0.9738060795045796,0.9829596369861318,0.9491202538345136,0.9291704578316652,0.9565037042753511,0.8559457262924199,0.9890305417357657,0.8724489795918368,0.9769123134328358,0.9146444250406268,0.894749114410612,0.8137446007094963,0.9308318972270093,2.3710760911305746
S1_b0.1_s0_lik0,S1,0.1,0,0.0,1746,0.855689293761033,960,2000,False,0.8505644852721095,71,0.9468380503751277,0.9624385898168223,-0.015600539441694594,0.9927959952868683,0.9633671795371237,0.9910787359523139,0.793855217021299,0.9987989036587758,0.9909062163515159,0.9804046012731382,0.973373273478594,0.9773671857917716,0.9686165560528889,0.9136586187757691,0.99601817302377,0.8942353787152446,0.9958022388059702,0.9750812534866236,0.9223295711486283,0.900761670904637,0.9550389924626177,2.3914102872212726
S1_b0.1_s1_lik0,S1,0.1,1,0.0,1739,0.8580591503249654,1200,2000,False,0.841658162812317,71,0.9411882318571527,0.9540365954834797,-0.01284836362632702,0.9925057706887643,0.9609060394232433,0.9869627711196228,0.7425996605194409,0.9963775776216283,0.9834257367048278,0.9839058266163201,0.9635545619710255,0.9760914146864441,0.9685651077841231,0.9144961148112909,0.994066127694859,0.9033308793315984,0.9943079740187949,0.968259598826069,0.9186435408501659,0.8653353427325113,0.9436894006649608,2.430140153566996
S1_b0.1_s2_lik0,S1,0.1,2,0.0,1717,0.8595125035879201,1360,2000,False,0.8615235514020619,71,0.9400849175444113,0.9549273203428699,-0.01484240279845861,0.9945136806370454,0.9579896799023403,0.993829412136282,0.7859500801166198,0.9938247097709259,0.9858482973313545,0.98422649140546,0.9546730502549463,0.9434904815308548,0.9733369347121469,0.9155615683476054,0.9964932283029299,0.9101749760306809,0.9965450525152018,0.9579907346770478,0.9242373567983118,0.8406852904609787,0.9457391160547983,2.3823785305023195
S1_b0.1_s3_lik0,S1,0.1,3,0.0,1766,0.8512400408569242,1200,2000,False,0.8554592001559873,71,0.9502074621393244,0.960677227359093,-0.010469765219768612,0.9909832384429281,0.9844916436762116,0.9903075703891717,0.7639381296350948,0.998750591938161,0.9882018354263222,0.9845915237099621,0.976096162590433,0.9687343504235524,0.9717613314811958,0.9514301855375832,0.9962254698728579,0.9149859608272839,0.996199557766722,0.9613197021513982,0.9193195093457944,0.8889612996700785,0.9516641426010061,2.3466291069984435
S1_b0.1_s4_lik0,S1,0.1,4,0.0,1752,0.8583375366613133,1280,2000,False,0.8482390821371808,71,0.9446065317338525,0.9528177214452209,-0.008211189711368472,0.9958254257995663,0.9636952867747931,0.9815162599991959,0.7520073719173916,0.9988414753729808,0.9894820080399528,0.9829723950270299,0.9612857096255129,0.9497335604505667,0.974803210371971,0.8997730336187758,0.9964154919845218,0.93847589371319,0.9928137092316196,0.9623323388876761,0.9047261267711787,0.8825393685133356,0.9495796125124027,2.381152637799581
S1_b0.25_s0_lik0,S1,0.25,0,0.0,4326,0.8841480055912455,1520,2000,False,0.8818209580567369,71,0.963806820188911,0.971215073161696,-0.007408252972785023,0.9972265079847983,0.9698492285114108,0.995955587203326,0.834791475618073,0.9985276883559185,0.9909820109050391,0.9884455945723105,0.978204903730225,0.9869526615741622,0.9756521068066061,0.9505034887408818,0.9967350746268657,0.9463429667168881,0.9963463930348259,0.9822151883383056,0.947780844889961,0.9127036310774143,0.9659816874684493,2.3971473495165507
S1_b0.25_s1_lik0,S1,0.25,1,0.0,4369,0.8918514059340629,1880,2000,False,0.8896875579872695,71,0.9638925667225651,0.9676510081596587,-0.003758441437093585,0.9964634611577113,0.9880836958912713,0.9932905322759406,0.7894274451083968,0.9996455546042027,0.9913263421756839,0.9881679643688862,0.97722992302013,0.9852241548347053,0.9798162010598342,0.9494776799873137,0.996069997236042,0.9490266744281606,0.99610454671089,0.9827336340925077,0.9449709828157975,0.9144376106769697,0.9623957734955699,2.4159298817316692
S1_b0.25_s2_lik0,S1,0.25,2,0.0,4378,0.8901242989581422,1800,2000,False,0.8850330398026478,71,0.9658955173296564,0.9678194268184145,-0.001923909488758091,0.9978125709263524,0.9871824924395967,0.9960216838272874,0.7942425133709258,0.9984884649787859,0.9894801848032702,0.9909273191547704,0.9719582366064147,0.9842613752583282,0.9813532180892114,0.9620401205201394,0.9973828772802654,0.9598899123407751,0.9970805693753455,0.97896201702685,0.9408374472414833,0.9078411178155735,0.9676723762772643,2.350439751148224
S1_b0.25_s3_lik0,S1,0.25,3,0.0,4384,0.891294171724383,1760,2000,False,0.8877976360968576,71,0.9633104656070418,0.9651309458271111,-0.0018204802200693093,0.9960052467391987,0.9801872931488723,0.9941886653765095,0.7799293838183574,0.9983559664974959,0.9913250398637677,0.98999826719146,0.9786539474236076,0.977534702384731,0.9801152441220352,0.9502457976530287,0.9965191404090658,0.9424907546911382,0.9966659756771696,0.9795077493996943,0.9445470304492011,0.9092667050702418,0.9704357929918012,2.3849324226379394
S1_b0.25_s4_lik0,S1,0.25,4,0.0,4396,0.8927258958687599,1640,2000,False,0.8864289346291515,71,0.9668346800481084,0.9679492866162942,-0.0011146065681858497,0.9982795983214298,0.9883928286571615,0.9913556986085829,0.7966737903446764,0.9989476654915599,0.9914352154518788,0.9892859115048966,0.9734215398503809,0.983751331316081,0.9847423727941556,0.9563263162067872,0.9973137783305694,0.9690453362553075,0.9974174267551132,0.9816239782677241,0.9340989599035273,0.9152211987734131,0.9657227531463785,2.367799433072408
S1_b0.5_s0_lik0,S1,0.5,0,0.0,8735,0.9095163456055727,2924,3400,False,0.9046166663297461,71,0.9720600182632452,0.9707323971793252,0.0013276210839199276,0.9983158763961929,0.9886222014753072,0.996223246946405,0.7977412196872317,0.9995876762062385,0.9905592804570386,0.9897080693656587,0.9830561734021002,0.9927778306777545,0.9816940628697843,0.9737501982239137,0.997944306246545,0.9656083070812218,0.9968473604201217,0.9823789080501589,0.9525338219776907,0.9244904252904999,0.9732927742092711,3.3713531215985615
S1_b0.5_s1_lik0,S1,0.5,1,0.0,8752,0.9112182692481087,2788,3400,False,0.9062931699611968,71,0.9725180707962539,0.9725595465755971,-4.1475779343214114e-05,0.9984537451528629,0.9932649020967631,0.994878459161934,0.8207619067425382,0.9995661511822022,0.9895541561201107,0.987811881734865,0.9790840174398051,0.9896606995492921,0.980629726809693,0.9783390818268316,0.9973656025428413,0.9683348171483359,0.9976333609729132,0.9865325377768075,0.9508992500753692,0.9245835248663149,0.968344735147179,3.4530561129252115
S1_b0.5_s2_lik0,S1,0.5,2,0.0,8743,0.9090557576361162,2856,3400,False,0.8983816114899833,71,0.9698942823200117,0.9684517780645862,0.0014425042554255807,0.9966058571283701,0.9898337131026284,0.99371634154325,0.7900513776295384,0.9972577119377783,0.9901667636454939,0.9906489272772627,0.9779835441630644,0.9898017661538895,0.9824111231157071,0.9667528940691406,0.9976333609729132,0.9653429324750034,0.9959749861802101,0.981993863542652,0.9480093081097377,0.9193214592582679,0.9716086131564747,3.346936066945394
S1_b0.5_s3_lik0,S1,0.5,3,0.0,8716,0.9114230171073158,2720,3400,False,0.9088601955165936,71,0.9711866295941287,0.9679982999807706,0.003188329613358132,0.9971057219155788,0.9884702377853938,0.9906592434779113,0.7918842887578589,0.9991954424349107,0.9891137142300497,0.9895917236494091,0.9767735561530969,0.9891907714227273,0.9818741318104646,0.9710989533777354,0.9970287451630735,0.9658394398027668,0.9963118435599778,0.9827245385529603,0.9493588898100694,0.9251130287037629,0.9713300955663481,3.301370120048523
S1_b0.5_s4_lik0,S1,0.5,4,0.0,8705,0.9122359501453358,2380,3400,False,0.9038424973318081,71,0.9736917955001808,0.9695236420667894,0.004168153433391386,0.9972819210840203,0.9880603556118259,0.9948533068410869,0.7974312010494716,0.9994508727201412,0.9895572816687096,0.9906531164847218,0.9794834632752828,0.9889412598658457,0.9842246745897001,0.974166468442753,0.9971755804311775,0.9736765511573757,0.9978838446655611,0.9833824492468894,0.9499170937594211,0.9304837104835941,0.9723157867251555,3.304960882663727
S1_b1_s0_lik0,S1,1.0,0,0.0,17418,0.9271486583500832,6120,6800,False,0.9264528209744711,71,0.9774745784890145,0.9721939738828015,0.005280604606213046,0.9976629314133117,0.9927692150109901,0.9942509144993369,0.8142412325613485,0.9995058811149006,0.9908942350818868,0.9889441102599404,0.9789079284006654,0.992569316602834,0.9844047435303802,0.9812133285759593,0.9979183941404091,0.9776528900150664,0.9978320204532891,0.9881151616580562,0.9515728632800724,0.9413589046834906,0.9772029000644072,5.587595518430074
S1_b1_s1_lik0,S1,1.0,1,0.0,17418,0.9275961596275991,5712,6800,False,0.9260878306308046,71,0.9766161000260625,0.9689235662860908,0.007692533739971696,0.9979899169890043,0.9931733880514562,0.9951403189406164,0.7825171473333744,0.9993035458889596,0.9909903457013028,0.9890463650056459,0.9793503146634569,0.9928007540010015,0.9837552091372126,0.9784282825880114,0.9975642620232172,0.9752174359676756,0.9985230099502487,0.9863566906788911,0.9555886343081099,0.9374002331368544,0.9767111424443401,5.635609257221222
S1_b1_s2_lik0,S1,1.0,2,0.0,17418,0.9305866022341641,6120,6800,False,0.9226768254409158,71,0.9756916475096735,0.9702788737839774,0.005412773725696152,0.9976344401466094,0.9930229356026579,0.9957753863293116,0.793346491341001,0.9993131125663091,0.9906595584745864,0.9898034690446131,0.9797560850579962,0.9931983854927103,0.9856652261151412,0.9791220662860768,0.9974519762299613,0.9750590672510615,0.9985057352128247,0.9881394164301827,0.9507697090744649,0.9323049709354762,0.9742066600518738,5.596158071358999
S1_b1_s3_lik0,S1,1.0,3,0.0,17418,0.9291266817348856,6800,6800,False,0.925828832648626,71,0.9758409585975019,0.9718692193077361,0.003971739289765797,0.997678565392286,0.9934524639107227,0.9944065947317946,0.8108216360427737,0.9997043896699018,0.9913518674892415,0.989235260178346,0.9768397975874803,0.9933323987670778,0.9852472089314194,0.9816741991753886,0.9975728993919292,0.9794719901383372,0.9982379767827528,0.9852682577797182,0.9485557356044618,0.9319442100791927,0.9745961494943164,5.702609201272328
S1_b1_s4_lik0,S1,1.0,4,0.0,17418,0.9275599677510321,5848,6800,False,0.9233665227250764,71,0.9763390271742226,0.969389161528558,0.006949865645664577,0.9991533506212544,0.9925363159635757,0.993204853593968,0.7917204738731352,0.999093557321139,0.991466731400251,0.9894845180221609,0.9757842619672308,0.9920583909943079,0.985395122704121,0.9812678401522359,0.9979443062465451,0.9755427338720724,0.998004767827529,0.9862172257391641,0.9505106270726561,0.9358796067318751,0.9762890142218044,5.74369866847992
