epoch,loss,top1,lr,minutes
1,4.1240087046342735,0.42371323529411764,0.00010294117647058823,0.08714032173156738
2,2.55274260745329,0.6715016084558824,0.00020294117647058824,0.15672359863917032
3,1.8946588740629309,0.8265739889705882,0.00030294117647058824,0.22569010655085245
4,1.4451315367923063,0.9039234834558824,0.0004029411764705883,0.2959835290908813
5,1.1410387193455416,0.9343692555147058,0.0005029411764705883,0.36691224575042725
6,0.9166410425130058,0.953125,0.0006029411764705882,0.44072274764378866
7,0.753008798641317,0.9638097426470589,0.0007029411764705881,0.5119346777598063
8,0.6240532030077541,0.9746668198529411,0.0008029411764705883,0.5849201758702596
9,0.5435283166520736,0.9790900735294118,0.0009029411764705882,0.6566908915837606
10,0.4714041063014199,0.9859834558823529,0.001,0.7295124769210816
11,0.4127285007168265,0.9896312040441176,0.0009999706613915565,0.8009299079577128
12,0.37195008554879355,0.9918715533088235,0.000999882649009242,0.8738056143124898
13,0.3427501829231487,0.9932789522058824,0.0009997359731816998,0.945385734240214
14,0.3262307749075048,0.9933651194852942,0.0009995306511219884,1.0174752195676169
15,0.30843306639615226,0.994140625,0.0009992667069255619,1.088705094655355
16,0.29354865936671987,0.9955480238970589,0.0009989441715674422,1.1616337100664775
17,0.2892558513318791,0.9938246783088235,0.0009985630828985835,1.2325353066126505
18,0.2731860753367929,0.9953756893382353,0.0009981234856414306,1.3041825612386069
19,0.2712756342747632,0.9948012408088235,0.000997625431384671,1.3750855763753256
20,0.2615792773225728,0.9954044117647058,0.0009970689785771798,1.446256446838379
21,0.253446205135654,0.9957203584558824,0.0009964541925211613,1.5194810112317403
22,0.24839895393918543,0.9964671415441176,0.0009957811453644848,1.591091267267863
23,0.24165544352110693,0.9966107536764706,0.0009950499160922184,1.662963624795278
24,0.237039711107226,0.9964096966911765,0.0009942605905173593,1.734680163860321
25,0.23208069976638346,0.9966107536764706,0.0009934132612707631,1.8067316929499309
26,0.2295051642200526,0.99658203125,0.0009925080277902742,1.878442402680715
27,0.22281085655969732,0.9967543658088235,0.000991544996309055,1.949945298830668
28,0.2201627576175858,0.9966969209558824,0.0009905242798431196,2.020670938491821
29,0.21421381524380514,0.9975011488970589,0.000989445998178071,2.090271822611491
30,0.21458394168054357,0.9968979779411765,0.0009883102778550433,2.161294150352478
31,0.21080556292744243,0.9967543658088235,0.0009871172521558522,2.234542461236318
32,0.2101810815579751,0.9971564797794118,0.0009858670610873527,2.3062631209691364
33,0.20868569612503052,0.9970415900735294,0.0009845598513650103,2.377614180246989
34,0.20543438415316975,0.9970990349264706,0.0009831957763956813,2.4477375626564024
35,0.20185555123230992,0.9976160386029411,0.0009817749962596114,2.5201326926549275
36,0.20115155595190384,0.9970415900735294,0.0009802976776916493,2.596554668744405
37,0.1965852669056724,0.9979607077205882,0.0009787639940616788,2.672916042804718
38,0.19908081082736745,0.9972426470588235,0.000977174125354274,2.7487579504648845
39,0.19456231111989303,0.9974724264705882,0.0009755282581475768,2.8245583693186442
40,0.1910190586658085,0.9975298713235294,0.0009738265855914012,2.8991581201553345
41,0.19230547722648172,0.9969554227941176,0.0009720693073845667,2.9744975407918295
42,0.18654574497657664,0.9976734834558824,0.000970256629751462,3.0450042565663655
43,0.1851891090764719,0.9974724264705882,0.0009683887654178445,3.1169268170992535
44,0.18519076135228663,0.9975011488970589,0.0009664659335858754,3.188838990529378
45,0.1828756025608848,0.9975298713235294,0.0009644883599083958,3.2611300468444826
46,0.18263082469210906,0.9976447610294118,0.0009624562764624445,3.3354624072710672
47,0.18285644361201456,0.9974437040441176,0.0009603699217220239,3.4067527850468955
48,0.17773342176395304,0.9982479319852942,0.000958229540530113,3.4776408235232035
49,0.17796383491333792,0.9979319852941176,0.000956035384069935,3.5498119552930194
50,0.182938834761872,0.9971564797794118,0.0009537877098354786,3.621347630023956
51,0.17772571172784357,0.9975873161764706,0.0009514867816012809,3.695560884475708
52,0.1758170526693849,0.9980755974264706,0.0009491328693914722,3.7660625338554383
53,0.17369174825794556,0.9978745404411765,0.0009467262494480868,3.837456806500753
54,0.172573942471953,0.9981330422794118,0.0009442672041986457,3.908606151739756
55,0.1708791426876012,0.9982192095588235,0.0009417560222230115,3.980389718214671
56,0.17184648399843888,0.9977309283088235,0.0009391929982195233,4.05379612048467
57,0.1703909135916654,0.9979894301470589,0.0009365784329704115,4.123397584756216
58,0.17025204441126654,0.9979894301470589,0.0009339126333065006,4.19524834950765
59,0.1701358907362994,0.9982192095588235,0.000931195912071201,4.265702279408773
60,0.1659616345868391,0.9979032628676471,0.0009284285880837946,4.337144521872203
61,0.16349291889106526,0.9987362132352942,0.0009256109861020212,4.410443607966105
62,0.16498648156138027,0.9982766544117647,0.0009227434367839658,4.480768076578776
63,0.16221135328797734,0.9983628216911765,0.0009198262766492554,4.552023144563039
64,0.16637503005125942,0.9979894301470589,0.0009168598480395651,4.622943945725759
65,0.16174902679289088,0.9979032628676471,0.0009138444990784454,4.695339707533519
66,0.1627204838921042,0.9979607077205882,0.0009107805836304658,4.76753431558609
67,0.163645620293477,0.9979607077205882,0.000907668461259689,4.8384609858194985
68,0.16012303312035167,0.9985638786764706,0.0009045084971874737,4.909325603644053
69,0.1574279091813985,0.9982766544117647,0.0009013010622496143,4.979943867524465
70,0.15828427014982,0.99853515625,0.0008980465328528219,5.050812431176504
71,0.15912376870127284,0.998046875,0.0008947452909305509,5.1236722310384115
72,0.15538474917411804,0.9985638786764706,0.0008913977238981779,5.193799916903178
73,0.15639891606919906,0.9985638786764706,0.0008880042246075365,5.26432683467865
74,0.15696088005514705,0.9985064338235294,0.0008845651913008145,5.335883108774821
75,0.155460263876354,0.9986787683823529,0.0008810810275638182,5.405554954210917
76,0.1528891789562562,0.9988223805147058,0.0008775521422786103,5.477947096029918
77,0.15655373387476978,0.9981904871323529,0.0008739789495755254,5.549330206712087
78,0.1541549225940424,0.9983915441176471,0.0008703618687845696,5.619696036974589
79,0.15243207970086267,0.9988223805147058,0.0008667013243862111,5.691730646292369
80,0.15415587583008936,0.9986500459558824,0.0008629977459615654,5.763886932531992
81,0.1541948007310138,0.9985926011029411,0.0008592515681419813,5.836030042171478
82,0.1533535008921343,0.9982192095588235,0.0008554632305580354,5.905684181054434
83,0.14984296700533697,0.9984489889705882,0.00085163317778794,5.9770424644152325
84,0.1511954616974382,0.9985638786764706,0.0008477618593053693,6.04867225488027
85,0.1507806146846098,0.9984489889705882,0.0008438497294267117,6.1202156901359555
86,0.14981585039811976,0.9986213235294118,0.0008398972472577539,6.193924748897553
87,0.14866923102561166,0.9988511029411765,0.0008359048766398031,6.264050634702047
88,0.1468040373395471,0.9988511029411765,0.0008318730860952522,6.334887472788493
89,0.1472376501735519,0.9985638786764706,0.000827802348772598,6.4059480349222815
90,0.15008005017743392,0.9984202665441176,0.0008236931423909139,6.4773961186408995
91,0.14822182979653864,0.9988223805147058,0.000819545949183788,6.5503422498703
92,0.15005247031941132,0.9982479319852942,0.0008153612558427309,6.621465170383454
93,0.14967344482155406,0.9984202665441176,0.0008111395534600603,6.693713108698527
94,0.14819930975928025,0.9982479319852942,0.0008068813374712689,6.765717995166779
95,0.14830289912574432,0.9983628216911765,0.0008025871075968827,6.836964094638825
96,0.14717315882444382,0.9987936580882353,0.0007982573677838172,6.909071691830953
97,0.1487620415932992,0.9983053768382353,0.0007938926261462366,6.979603970050812
98,0.14694425682811177,0.99853515625,0.0007894933949059243,7.050768725077311
99,0.14295857399702072,0.9989085477941176,0.0007850601903321716,7.120838284492493
100,0.15081650500788407,0.9977596507352942,0.0007805935326811913,7.192863122622172
101,0.1471020908040159,0.99853515625,0.0007760939461350624,7.264155344168345
102,0.14612609235679402,0.9986787683823529,0.0007715619587402164,7.335910240809123
103,0.14298860158990412,0.9986500459558824,0.000766998102345468,7.407009768486023
104,0.14126300198190353,0.9988223805147058,0.0007624029125396003,7.478072933355967
105,0.1422923233579187,0.9989659926470589,0.0007577769285885109,7.549326574802398
106,0.14173082086969824,0.9987074908088235,0.0007531206933719271,7.622814067204794
107,0.14312233819681056,0.9986500459558824,0.0007484347533196961,7.695185204346974
108,0.14439231639399247,0.9985926011029411,0.0007437196583476597,7.766048351923625
109,0.1411870240288622,0.9990234375,0.0007389759617931182,7.837837072213491
110,0.14311492355430827,0.9981617647058824,0.0007342042203498951,7.9094944079717004
111,0.14100737387643142,0.9988223805147058,0.0007294049940030055,7.982884299755097
112,0.14042952393784242,0.9988511029411765,0.0007245788459629396,8.05258028904597
113,0.13963271151570714,0.9988798253676471,0.0007197263425995681,8.125111603736878
114,0.14176669848315857,0.9984202665441176,0.0007148480533756759,8.195666507879894
115,0.13861998214441187,0.9989947150735294,0.0007099445507801323,8.26649531920751
116,0.1410444852183847,0.9989947150735294,0.000705016410260708,8.340111855665842
117,0.14242104638148756,0.9983915441176471,0.0007000642101565435,8.410956307252247
118,0.1388596896739567,0.9989372702205882,0.0006950885316302773,8.48133053779602
119,0.13894994863692453,0.9990808823529411,0.000690089958599846,8.550532118479412
120,0.13733912697609732,0.9989085477941176,0.0006850690776699572,8.619856083393097
121,0.14079602851587183,0.9983340992647058,0.0006800264780632495,8.691873665650686
122,0.13842212408781052,0.9990234375,0.0006749627515511443,8.763797267278035
123,0.1364650086444967,0.9992532169117647,0.0006698784923843993,8.835961238543193
124,0.1401071482721497,0.9988798253676471,0.0006647742972233702,8.905875825881958
125,0.13889521491878173,0.9989372702205882,0.00065965076506799,8.977927740414938
126,0.13729007761268056,0.9991096047794118,0.0006545084971874737,9.051334091027577
127,0.1355937217526576,0.9991670496323529,0.0006493480970497568,9.12232737938563
128,0.13800534649806864,0.9987074908088235,0.0006441701702506753,9.192052082220714
129,0.1354076851378469,0.9991957720588235,0.0006389753244428972,9.262720851103465
130,0.13674775532939853,0.9990521599264706,0.0006337641692646103,9.33496067126592
131,0.13620265376041918,0.9988798253676471,0.0006285373162679804,9.405578649044037
132,0.13536297705243616,0.9992532169117647,0.0006232953788473809,9.475869019826254
133,0.1363521511940395,0.9987936580882353,0.0006180389721674102,9.546468691031139
134,0.13334351580809145,0.9990234375,0.0006127687130906971,9.618100929260255
135,0.1347731062594582,0.9992244944852942,0.0006074852201055121,9.68881533940633
136,0.1332745017374263,0.9992244944852942,0.0006021891132531825,9.762499753634135
137,0.13399495863739183,0.9988511029411765,0.0005968810140553292,9.834011205037434
138,0.13338128762210116,0.9992244944852942,0.000591561545440928,9.904838184515635
139,0.1343416352482403,0.9991383272058824,0.0005862313316732063,9.974914646148681
140,0.13193490180899115,0.9992532169117647,0.0005808909982763825,10.045484642187754
141,0.13092687484972618,0.9992819393382353,0.0005755411719622584,10.11822292804718
142,0.13390703061047723,0.9988798253676471,0.0005701824805566722,10.187646126747131
143,0.1347543702406042,0.9987649356617647,0.0005648155529258194,10.258591878414155
144,0.13159684245200717,0.9993681066176471,0.0005594410189024533,10.33006641070048
145,0.13226132664610357,0.9987936580882353,0.0005540595092119709,10.400709784030914
146,0.13276702056036277,0.9991670496323529,0.0005486716553983948,10.473225382963816
147,0.13127189721254742,0.9990808823529411,0.0005432780897502588,10.54373258749644
148,0.1330388032776468,0.9989085477941176,0.0005378794452264051,10.614227783679961
149,0.13306869434959748,0.9990234375,0.0005324763553817053,10.68445728222529
150,0.1316373275921625,0.9990808823529411,0.0005270694542927088,10.75533591111501
151,0.1290917994783205,0.9996840533088235,0.0005216593764832311,10.826843249797822
152,0.13225328527829228,0.9990234375,0.0005162467568498903,10.89818064769109
153,0.13099304805783665,0.9993681066176471,0.0005108322305875987,10.970994551976522
154,0.12978697458610816,0.9993393841911765,0.0005054164331150199,11.042810515562694
155,0.13132147600545602,0.9990808823529411,0.0005,11.113813773790996
156,0.1306529152480995,0.9991096047794118,0.0004945835668849801,11.187313453356426
157,0.13185396483715842,0.9988798253676471,0.0004891677694124013,11.260102291901907
158,0.1312051682787783,0.9991096047794118,0.0004837532431501098,11.33222397963206
159,0.13236927569789045,0.9990234375,0.00047834062351676893,11.402587842941283
160,0.1300741517368485,0.9991383272058824,0.00047293054570729125,11.473624352614085
161,0.12891772301758037,0.9991670496323529,0.0004675236446182947,11.54583420753479
162,0.129642050494166,0.9990808823529411,0.00046212055477359496,11.617942575613657
163,0.13107170712421923,0.9988511029411765,0.0004567219102497413,11.69001061518987
164,0.1287876661209499,0.9990808823529411,0.0004513283446016052,11.760241377353669
165,0.1305919802364181,0.9991670496323529,0.0004459404907880292,11.832401796181996
166,0.13091167851405985,0.9988511029411765,0.0004405589810975468,11.905940353870392
167,0.1298752863179235,0.9990234375,0.00043518444707418076,11.976179707050324
168,0.13018414926003008,0.9987649356617647,0.00042981751944332785,12.047200218836467
169,0.130034777609741,0.9990521599264706,0.00042445882803774173,12.120293656984964
170,0.13064240883378422,0.9987649356617647,0.00041910900172361764,12.191238141059875
171,0.1276243256733698,0.9991670496323529,0.0004137686683267938,12.263449450333914
172,0.12885245987597635,0.9989659926470589,0.0004084384545590719,12.333270382881164
173,0.12805212376748815,0.9991383272058824,0.00040311898594467085,12.404246854782105
174,0.12648510122123888,0.9993968290441176,0.00039781088674681754,12.474876852830251
175,0.12656490592395558,0.9991670496323529,0.0003925147798944881,12.545810004075369
176,0.12834926957593246,0.9990234375,0.00038723128690930304,12.619344115257263
177,0.1261354750570129,0.9992819393382353,0.00038196102783259007,12.69151304960251
178,0.12582748032668056,0.9993106617647058,0.00037670462115261914,12.762730741500855
179,0.12567022903000608,0.9995404411764706,0.00037146268373201965,12.832670589288076
180,0.1263792247456663,0.9991096047794118,0.0003662358307353897,12.904522347450257
181,0.1267452741808751,0.9992819393382353,0.00036102467555710287,12.976128284136454
182,0.1268345242475762,0.9992819393382353,0.00035582982974932464,13.046189856529235
183,0.12680889315464916,0.9992819393382353,0.0003506519029502432,13.117827296257019
184,0.12718144913806634,0.9993681066176471,0.00034549150281252633,13.189726889133453
185,0.12409755368443097,0.9995691636029411,0.00034034923493201,13.260830692450206
186,0.12389222992693677,0.9993681066176471,0.0003352257027766298,13.333033283551535
187,0.12469162046909332,0.9996266084558824,0.00033012150761560087,13.403112936019898
188,0.1260760049609577,0.9990234375,0.0003250372484488559,13.473989876111348
189,0.12413733715520185,0.9992819393382353,0.0003199735219367508,13.544870094458263
190,0.12555229094098597,0.9992819393382353,0.0003149309223300429,13.615787148475647
191,0.1254670567372266,0.9990521599264706,0.000309910041400154,13.689008363087972
192,0.12547815284308264,0.9991670496323529,0.00030491146836972283,13.759260284900666
193,0.12341536296641126,0.9995691636029411,0.00029993578984345673,13.830792240301768
194,0.12330406071508632,0.9994829963235294,0.000294983589739292,13.900851444403331
195,0.12680843406740358,0.9988511029411765,0.0002900554492198677,13.971105031172435
196,0.12429800191346337,0.9995691636029411,0.00028515194662432405,14.04382385412852
197,0.12496614061734256,0.9993681066176471,0.0002802736574004319,14.113658293088276
198,0.12243131854954888,0.9992819393382353,0.00027542115403706064,14.184603615601857
199,0.12418404111967367,0.9991096047794118,0.0002705950059969948,14.255037136872609
200,0.12268865590586382,0.9994542738970589,0.000265795779650105,14.327317237854004
201,0.12199960583273102,0.9996840533088235,0.0002610240382068818,14.3993954261144
202,0.12384881123023875,0.9992532169117647,0.0002562803416523405,14.469018844763438
203,0.1207036930410301,0.9995691636029411,0.000251565246680304,14.539525882403057
204,0.12324100469841677,0.9993393841911765,0.000246879306628073,14.610414012273152
205,0.12212013409418218,0.9991670496323529,0.00024222307141148907,14.680801443258922
206,0.1234493514194208,0.9994542738970589,0.00023759708746039977,14.753141844272614
207,0.12289633799125166,0.9993681066176471,0.00023300189765453194,14.823466424147288
208,0.12337309341220294,0.9992532169117647,0.00022843804125978356,14.893145287036896
209,0.12372096715604558,0.9992819393382353,0.00022390605386493756,14.963555228710174
210,0.12467124115894823,0.9990234375,0.00021940646731880887,15.036408297220866
211,0.12217645916868658,0.9995978860294118,0.00021493980966782845,15.109048974514007
212,0.12263917397050296,0.9992532169117647,0.00021050660509407576,15.181545178095499
213,0.12313965116353597,0.9993968290441176,0.00020610737385376348,15.25209554831187
214,0.123946184402003,0.9992819393382353,0.00020174263221618284,15.324506517251333
215,0.12106117255547467,0.9996553308823529,0.00019741289240311755,15.394849558671316
216,0.12068094817154548,0.9993968290441176,0.00019311866252873128,15.466241824626923
217,0.12121724030550789,0.9995691636029411,0.00018886044653993966,15.538131558895111
218,0.12141698445467387,0.9993393841911765,0.000184638744157269,15.607085303465526
219,0.11949992333264912,0.99951171875,0.00018045405081621214,15.678246855735779
220,0.12015557091902285,0.9993106617647058,0.00017630685760908622,15.749083165327708
221,0.12068337070591309,0.9995404411764706,0.00017219765122740216,15.820888495445251
222,0.12037199998603147,0.9995691636029411,0.00016812691390474788,15.890770602226258
223,0.12031163560116992,0.9992532169117647,0.00016409512336019698,15.961270737648011
224,0.11991208024761256,0.9994255514705882,0.00016010275274224624,16.03138050635656
225,0.11917043564950719,0.9996266084558824,0.00015615027057328847,16.10220866203308
226,0.12143171403337927,0.9998276654411765,0.00015223814069463077,16.173717534542085
227,0.12099196323577095,0.9992819393382353,0.00014836682221206,16.243110744158425
228,0.12153274412540828,0.99951171875,0.00014453676944196475,16.316346995035808
229,0.1223288097364061,0.9991096047794118,0.00014074843185801883,16.387033979098003
230,0.11980407465906705,0.9993968290441176,0.00013700225403843458,16.45756218036016
231,0.11910349086803548,0.9994829963235294,0.00013329867561378872,16.531453661123912
232,0.12044517893125029,0.9995978860294118,0.0001296381312154305,16.601147449016572
233,0.11976470250417204,0.9996553308823529,0.00012602105042447482,16.67158233722051
234,0.12025634199380875,0.9992532169117647,0.0001224478577213897,16.74139838218689
235,0.11876578935805489,0.99951171875,0.00011891897243618183,16.81138593753179
236,0.12106698159785832,0.9993106617647058,0.00011543480869918555,16.88427099386851
237,0.11979510021560333,0.99951171875,0.00011199577539246347,16.955855723222097
238,0.12005353587515213,0.9995404411764706,0.00010860227610182222,17.02708034515381
239,0.11995494168470888,0.9994542738970589,0.00010525470906944917,17.098720065752666
240,0.12033880940254997,0.9992819393382353,0.00010195346714717812,17.16995949347814
241,0.12073908329886548,0.9991096047794118,9.869893775038557e-05,17.24234666029612
242,0.11974552120355998,0.99951171875,9.549150281252633e-05,17.314534322420755
243,0.12149533958119504,0.9993681066176471,9.233153874031102e-05,17.38498825232188
244,0.1202655982445268,0.9992532169117647,8.921941636953435e-05,17.45594245592753
245,0.11972296018810834,0.9993968290441176,8.615550092155477e-05,17.526415220896403
246,0.11997016497394618,0.9993106617647058,8.31401519604349e-05,17.598542634646098
247,0.11830331297481761,0.9992532169117647,8.017372335074486e-05,17.669884737332662
248,0.11758904509684619,0.9996840533088235,7.725656321603413e-05,17.73942587375641
249,0.11911293688942404,0.9995404411764706,7.43890138979788e-05,17.81083591779073
250,0.11880974274347811,0.9995404411764706,7.157141191620536e-05,17.881535104910533
251,0.11819108860457644,0.9995404411764706,6.880408792879905e-05,17.954435193538664
252,0.11971433964722297,0.9994542738970589,6.60873666934993e-05,18.026119895776112
253,0.11998827514403007,0.9993106617647058,6.342156702958851e-05,18.09703937371572
254,0.11856543250820216,0.9994255514705882,6.080700178047677e-05,18.16809380054474
255,0.1181295360712444,0.9995691636029411,5.8243977776988585e-05,18.24176692167918
256,0.11651656995801364,0.9997414981617647,5.573279580135448e-05,18.314233247439066
257,0.11883525155922946,0.9996840533088235,5.3273750551913246e-05,18.384421296914418
258,0.11891900024869863,0.9991670496323529,5.086713060852788e-05,18.45557375748952
259,0.12152061830548679,0.9989659926470589,4.851321839871908e-05,18.526981564362845
260,0.11880116186597768,0.9993106617647058,4.621229016452155e-05,18.597654338677724
261,0.11944621187799118,0.9993393841911765,4.3964615930065124e-05,18.67001359065374
262,0.11880900075330454,0.9993968290441176,4.1770459469887e-05,18.74075278441111
263,0.11763765575254664,0.9996840533088235,3.963007827797621e-05,18.811933147907258
264,0.11615957955227178,0.9996266084558824,3.754372353755558e-05,18.88399418989817
265,0.11937743513023152,0.9993393841911765,3.551164009160429e-05,18.954302871227263
266,0.11711960658431053,0.9995691636029411,3.3534066414124486e-05,19.027764705816903
267,0.11856933376368355,0.9995404411764706,3.161123458215553e-05,19.098968402544656
268,0.1185160421711557,0.9994255514705882,2.9743370248538015e-05,19.171160491307578
269,0.11865044209886999,0.9992819393382353,2.7930692615433406e-05,19.244097753365836
270,0.11790354374577017,0.9997989430147058,2.617341440859883e-05,19.316400837898254
271,0.11879214096595259,0.9995404411764706,2.4471741852423235e-05,19.389214436213177
272,0.11791211892576779,0.9993393841911765,2.282587464572594e-05,19.461091593901315
273,0.11834187060594559,0.9994829963235294,2.12360059383212e-05,19.532558488845826
274,0.11690401307800237,0.9993106617647058,1.9702322308350672e-05,19.604620734850567
275,0.1171377726337489,0.9992819393382353,1.8225003740388545e-05,19.675955128669738
276,0.1180216475006412,0.9994542738970589,1.680422360431877e-05,19.749302780628206
277,0.11665970481493894,0.9995978860294118,1.544014863498977e-05,19.820525403817495
278,0.11987463801222689,0.9992819393382353,1.4132938912647276e-05,19.891487260659535
279,0.11745994735290022,0.9995691636029411,1.288274784414789e-05,19.962606036663054
280,0.11595023116644691,0.9994255514705882,1.1689722144956671e-05,20.035510965188344
281,0.11725333727457944,0.9996266084558824,1.055400182192906e-05,20.11012145280838
282,0.11691470553769785,0.9995978860294118,9.475720156880418e-06,20.181674404939017
283,0.11829823102144633,0.9991383272058824,8.45500369094504e-06,20.25296345949173
284,0.1176607665770194,0.9994542738970589,7.4919722097258055e-06,20.323527348041534
285,0.11626162818249534,0.99951171875,6.58673872923693e-06,20.396954035758974
286,0.11721976802629583,0.9996266084558824,5.739409482640901e-06,20.468535963694254
287,0.11747021797825308,0.9994542738970589,4.950083907781733e-06,20.540544243653617
288,0.11751735254245646,0.9996553308823529,4.218854635515301e-06,20.6129341840744
289,0.11854940170750898,0.9992819393382353,3.545807478838814e-06,20.68453179995219
290,0.11800889342146761,0.9992532169117647,2.9310214228202015e-06,20.75634570121765
291,0.1170275599202689,0.9995404411764706,2.3745686153290315e-06,20.829193047682445
292,0.11781344518941991,0.9995404411764706,1.8765143585693922e-06,20.902491490046184
293,0.11738960160052075,0.9993681066176471,1.4369171014165793e-06,20.974597370624544
294,0.11689894054742421,0.9996266084558824,1.0558284325578037e-06,21.046457676092782
295,0.11754819334429853,0.9992244944852942,7.332930744380905e-07,21.11789445479711
296,0.11683714302147136,0.99951171875,4.6934887801164396e-07,21.192984672387443
297,0.11735111935173764,0.9996266084558824,2.6402681830023365e-07,21.264907717704773
298,0.11683124413385111,0.9995978860294118,1.173509907579362e-07,21.336398526032767
299,0.11810217819669667,0.9994542738970589,2.933860844345215e-08,21.4081773519516
300,0.11736791778136701,0.9993681066176471,0.0,21.479463652769724
