epoch,loss,top1,lr,minutes
1,4.3750463654013245,0.3671300551470588,0.00010294117647058823,0.08499639431635539
2,2.680064054096446,0.63818359375,0.00020294117647058824,0.15729628403981527
3,1.9492617494919722,0.8162051930147058,0.00030294117647058824,0.22801828781763714
4,1.4891186952590942,0.9012810202205882,0.0004029411764705883,0.298948069413503
5,1.1762787559453178,0.9354607077205882,0.0005029411764705883,0.37151083946228025
6,0.9245310180327472,0.9542451746323529,0.0006029411764705882,0.4449188788731893
7,0.7328912002198836,0.9684053308823529,0.0007029411764705881,0.5159597396850586
8,0.62535060153288,0.9737477022058824,0.0008029411764705883,0.5853880683581034
9,0.5233875679619172,0.9831112132352942,0.0009029411764705882,0.655759592851003
10,0.4578937975799336,0.9869312959558824,0.001,0.7249352296193441
11,0.410163196570733,0.9910386029411765,0.0009999706613915565,0.7980083346366882
12,0.37343431395642895,0.99267578125,0.000999882649009242,0.8690971811612447
13,0.3421253193827236,0.9939970128676471,0.0009997359731816998,0.9408483823140462
14,0.3228438593008939,0.9943704044117647,0.0009995306511219884,1.0109006841977437
15,0.3160380966523114,0.9933363970588235,0.0009992667069255619,1.0818438609441121
16,0.2949550134294173,0.9950597426470589,0.0009989441715674422,1.15387020111084
17,0.2883715419208302,0.9951171875,0.0009985630828985835,1.2249011834462484
18,0.27631079098757577,0.9947150735294118,0.0009981234856414306,1.296985936164856
19,0.26609959278036566,0.9953756893382353,0.000997625431384671,1.3669206460316976
20,0.26271458978162093,0.9950310202205882,0.0009970689785771798,1.436492665608724
21,0.25569848628605113,0.9955193014705882,0.0009964541925211613,1.5092912554740905
22,0.2418338928152533,0.9964958639705882,0.0009957811453644848,1.5816369732220967
23,0.24014689773321152,0.9957203584558824,0.0009950499160922184,1.651835838953654
24,0.23408140768023097,0.9963235294117647,0.0009942605905173593,1.722864826520284
25,0.22899899500257828,0.9965245863970589,0.0009934132612707631,1.7945797483126322
26,0.2272312303676325,0.9964384191176471,0.0009925080277902742,1.8688807924588522
27,0.22237881273031235,0.99658203125,0.000991544996309055,1.9407930811246237
28,0.21740162197281332,0.9969267003676471,0.0009905242798431196,2.0116893808046976
29,0.22029558437712052,0.9965245863970589,0.000989445998178071,2.082735002040863
30,0.21247365150381536,0.9969841452205882,0.0009883102778550433,2.1546805699666343
31,0.211927147472606,0.9965533088235294,0.0009871172521558522,2.22663893699646
32,0.20476679810706308,0.9978458180147058,0.0009858670610873527,2.298240900039673
33,0.20677255532320807,0.9972139246323529,0.0009845598513650103,2.36840166648229
34,0.20431003763395197,0.9967543658088235,0.0009831957763956813,2.4392773350079855
35,0.2032459763919606,0.9967256433823529,0.0009817749962596114,2.509529689947764
36,0.2004386817707735,0.9965533088235294,0.0009802976776916493,2.587730276584625
37,0.1963958516716957,0.9978745404411765,0.0009787639940616788,2.6592046062151593
38,0.19430968559840145,0.9975873161764706,0.000977174125354274,2.7352998932202657
39,0.19391768601010828,0.9973000919117647,0.0009755282581475768,2.810324990749359
40,0.18816391334814184,0.9979894301470589,0.0009738265855914012,2.8856232166290283
41,0.19002489263520522,0.9978170955882353,0.0009720693073845667,2.9591067830721536
42,0.18951301671126308,0.9971564797794118,0.000970256629751462,3.03078955411911
43,0.18535275932620554,0.9978170955882353,0.0009683887654178445,3.101803489526113
44,0.1855801887371961,0.9977596507352942,0.0009664659335858754,3.173100705941518
45,0.18397519386866512,0.9974724264705882,0.0009644883599083958,3.2447997371355695
46,0.17935326914576924,0.9979894301470589,0.0009624562764624445,3.3156448125839235
47,0.18153829609646516,0.9973862591911765,0.0009603699217220239,3.3860105872154236
48,0.17980693149216034,0.9979319852941176,0.000958229540530113,3.455933960278829
49,0.17895426075248158,0.9977309283088235,0.000956035384069935,3.5263571103413898
50,0.17996900879284916,0.9978745404411765,0.0009537877098354786,3.5951080362002057
51,0.17744688908843434,0.9979032628676471,0.0009514867816012809,3.6664806922276814
52,0.1735072333146544,0.9983340992647058,0.0009491328693914722,3.736126220226288
53,0.16935448173214407,0.9983053768382353,0.0009467262494480868,3.806619195143382
54,0.16974351292147355,0.9981904871323529,0.0009442672041986457,3.8767481048901877
55,0.16974064050351872,0.9982766544117647,0.0009417560222230115,3.9470636447270713
56,0.1698870821034207,0.9985926011029411,0.0009391929982195233,4.01991632382075
57,0.16885033206028097,0.9981330422794118,0.0009365784329704115,4.089897179603577
58,0.16850974892868714,0.9980181525735294,0.0009339126333065006,4.159832588831583
59,0.16854248239713557,0.9978170955882353,0.000931195912071201,4.23036421140035
60,0.16539295938085108,0.9985064338235294,0.0009284285880837946,4.301281940937042
61,0.16377134402008617,0.99853515625,0.0009256109861020212,4.375661953290304
62,0.16379819503601858,0.9981904871323529,0.0009227434367839658,4.4447803179423016
63,0.16469699144363403,0.9978170955882353,0.0009198262766492554,4.516510224342346
64,0.16542947423808715,0.9978745404411765,0.0009168598480395651,4.587842671076457
65,0.16382547336466172,0.9981043198529411,0.0009138444990784454,4.6578023036321
66,0.16131151555215612,0.9986213235294118,0.0009107805836304658,4.728514361381531
67,0.1630004916120978,0.9978745404411765,0.000907668461259689,4.798447342713674
68,0.1564584988005021,0.9987649356617647,0.0009045084971874737,4.869575607776642
69,0.15801931698532665,0.9984489889705882,0.0009013010622496143,4.939564887682597
70,0.15809898297576344,0.9986213235294118,0.0008980465328528219,5.0119012037913
71,0.15632043603588552,0.9985926011029411,0.0008947452909305509,5.084850120544433
72,0.15623196608879986,0.9983628216911765,0.0008913977238981779,5.156357248624166
73,0.1551334384609671,0.9985926011029411,0.0008880042246075365,5.226762326558431
74,0.1559307658497025,0.9981904871323529,0.0008845651913008145,5.298107727368673
75,0.15391163265003877,0.9989947150735294,0.0008810810275638182,5.36836082537969
76,0.15226920255843332,0.9986213235294118,0.0008775521422786103,5.441778385639191
77,0.15559202827074947,0.9982766544117647,0.0008739789495755254,5.512868658701579
78,0.1579594498171526,0.9978170955882353,0.0008703618687845696,5.584500964482626
79,0.15503810433780446,0.9984489889705882,0.0008667013243862111,5.655165684223175
80,0.154733006568516,0.9984489889705882,0.0008629977459615654,5.726638658841451
81,0.1534230945741429,0.998046875,0.0008592515681419813,5.798651552200317
82,0.14898783187655842,0.9986213235294118,0.0008554632305580354,5.868501901626587
83,0.1508586586398237,0.9988511029411765,0.00085163317778794,5.940023120244344
84,0.14946256315006928,0.9992819393382353,0.0008477618593053693,6.011427851517995
85,0.1511201393954894,0.9983915441176471,0.0008438497294267117,6.0819672306378685
86,0.15520429129109664,0.9977309283088235,0.0008398972472577539,6.153880929946899
87,0.14884338571744807,0.9986213235294118,0.0008359048766398031,6.224195015430451
88,0.15012464321711483,0.9987074908088235,0.0008318730860952522,6.293990210692088
89,0.1478257113519837,0.99853515625,0.000827802348772598,6.3655497590700785
90,0.1515681020477239,0.9982479319852942,0.0008236931423909139,6.436516793568929
91,0.14745402248466716,0.9987649356617647,0.000819545949183788,6.508610423405965
92,0.1446729797650786,0.9988798253676471,0.0008153612558427309,6.5798000733057656
93,0.14311891224454432,0.9992244944852942,0.0008111395534600603,6.650787250200907
94,0.14591887286480734,0.9986787683823529,0.0008068813374712689,6.72202402750651
95,0.1470698810675565,0.9981904871323529,0.0008025871075968827,6.792655364672343
96,0.1506168198059587,0.9981043198529411,0.0007982573677838172,6.865628190835317
97,0.14508050285718022,0.9988798253676471,0.0007938926261462366,6.936186230182647
98,0.14526773375623367,0.9986213235294118,0.0007894933949059243,7.007996622721354
99,0.14330683166489883,0.9986213235294118,0.0007850601903321716,7.078079466025034
100,0.14655611707883723,0.9982766544117647,0.0007805935326811913,7.151007771492004
101,0.14250543187646306,0.9991957720588235,0.0007760939461350624,7.223810668786367
102,0.14337840983096292,0.9987362132352942,0.0007715619587402164,7.29477911790212
103,0.146062714212081,0.9987649356617647,0.000766998102345468,7.366532301902771
104,0.1439305570195703,0.9987936580882353,0.0007624029125396003,7.436956596374512
105,0.14327395838849685,0.9987936580882353,0.0007577769285885109,7.508041882514954
106,0.14260068623458638,0.9987074908088235,0.0007531206933719271,7.579920331637065
107,0.13927613242584116,0.9990521599264706,0.0007484347533196961,7.650619784990947
108,0.1452230337788077,0.9981043198529411,0.0007437196583476597,7.720683900515239
109,0.14106374716057496,0.9986787683823529,0.0007389759617931182,7.791623214880626
110,0.14277796140488455,0.9985064338235294,0.0007342042203498951,7.862830861409505
111,0.14275293884908452,0.9985638786764706,0.0007294049940030055,7.935126209259034
112,0.14264911676154418,0.9987074908088235,0.0007245788459629396,8.005239339669545
113,0.14140390341772752,0.9986787683823529,0.0007197263425995681,8.075041715304057
114,0.14232638872721615,0.9987649356617647,0.0007148480533756759,8.145990717411042
115,0.1382879557854989,0.9989659926470589,0.0007099445507801323,8.2168821533521
116,0.13875420610694325,0.9988511029411765,0.000705016410260708,8.288799353440602
117,0.14051194182213614,0.9985638786764706,0.0007000642101565435,8.36110057036082
118,0.13934524291578462,0.9989372702205882,0.0006950885316302773,8.432247916857401
119,0.13930061240406597,0.9990521599264706,0.000690089958599846,8.505169713497162
120,0.13764419844921896,0.9989947150735294,0.0006850690776699572,8.5748726050059
121,0.13598879295236924,0.9993106617647058,0.0006800264780632495,8.648103328545888
122,0.1355950380949413,0.9992244944852942,0.0006749627515511443,8.719289008776347
123,0.13794503711602268,0.9989085477941176,0.0006698784923843993,8.791585099697112
124,0.1384727656841278,0.9989085477941176,0.0006647742972233702,8.862626997629802
125,0.13886211724842296,0.9988511029411765,0.00065965076506799,8.934002395470937
126,0.13940510855001562,0.9984202665441176,0.0006545084971874737,9.008608174324035
127,0.1382774903493769,0.9984777113970589,0.0006493480970497568,9.077972002824147
128,0.13761083913200042,0.9987649356617647,0.0006441701702506753,9.14802570740382
129,0.1378209849490839,0.9989947150735294,0.0006389753244428972,9.218618830045065
130,0.13680528191959157,0.9988511029411765,0.0006337641692646103,9.29052936633428
131,0.13438079221283689,0.9991670496323529,0.0006285373162679804,9.364098862806957
132,0.13486085832118988,0.9989659926470589,0.0006232953788473809,9.4344499985377
133,0.13351824090761297,0.9988798253676471,0.0006180389721674102,9.504840842882793
134,0.13340261403252096,0.9993681066176471,0.0006127687130906971,9.5771808664004
135,0.13482845202088356,0.9991096047794118,0.0006074852201055121,9.64879276752472
136,0.1343256725984461,0.9988798253676471,0.0006021891132531825,9.721422600746155
137,0.1314754071919357,0.9992532169117647,0.0005968810140553292,9.793341052532195
138,0.13302623875000896,0.9989372702205882,0.000591561545440928,9.863681860764821
139,0.13418298389981775,0.9989947150735294,0.0005862313316732063,9.934353303909301
140,0.13460044891518705,0.9987649356617647,0.0005808909982763825,10.005462833245595
141,0.1325042979682193,0.9989659926470589,0.0005755411719622584,10.078819584846496
142,0.13202765846953674,0.9991957720588235,0.0005701824805566722,10.150651637713114
143,0.13070930058465285,0.9991383272058824,0.0005648155529258194,10.221589783827463
144,0.13201123059672468,0.9989372702205882,0.0005594410189024533,10.294689138730368
145,0.13224473047782392,0.9991670496323529,0.0005540595092119709,10.366793096065521
146,0.13195905220859191,0.9988223805147058,0.0005486716553983948,10.43886654774348
147,0.13200748624170527,0.9989372702205882,0.0005432780897502588,10.51008822520574
148,0.13349932015818708,0.9989085477941176,0.0005378794452264051,10.581596302986146
149,0.1313268150038579,0.9991957720588235,0.0005324763553817053,10.652475484212239
150,0.13103728741407394,0.9990234375,0.0005270694542927088,10.724492756525676
151,0.13056479482089772,0.9990521599264706,0.0005216593764832311,10.797279477119446
152,0.1329139795373468,0.9987936580882353,0.0005162467568498903,10.867734014987946
153,0.13087192046291687,0.9992244944852942,0.0005108322305875987,10.939723618825276
154,0.13098936440313563,0.9989372702205882,0.0005054164331150199,11.010997358957926
155,0.12718811740770058,0.9996266084558824,0.0005,11.082275362809499
156,0.13037932729896376,0.9991383272058824,0.0004945835668849801,11.155650782585145
157,0.12911047545426033,0.9992819393382353,0.0004891677694124013,11.225147032737732
158,0.13320772218353608,0.9988511029411765,0.0004837532431501098,11.295897503693899
159,0.1289675533771515,0.9993681066176471,0.00047834062351676893,11.367742093404134
160,0.12884429053348653,0.9993681066176471,0.00047293054570729125,11.4383989016215
161,0.1304609889493269,0.9987936580882353,0.0004675236446182947,11.512364168961843
162,0.12698289905400836,0.9993968290441176,0.00046212055477359496,11.583647525310516
163,0.12977023510371938,0.9992532169117647,0.0004567219102497413,11.655974233150483
164,0.12912925924448407,0.9990808823529411,0.0004513283446016052,11.726548635959626
165,0.12903314281035871,0.9992532169117647,0.0004459404907880292,11.795412504673005
166,0.13054029577795198,0.9989947150735294,0.0004405589810975468,11.868471153577168
167,0.13098813352339408,0.9990234375,0.00043518444707418076,11.938295523325602
168,0.12721066154977856,0.99951171875,0.00042981751944332785,12.010754458109538
169,0.12658514542614713,0.9993106617647058,0.00042445882803774173,12.081622743606568
170,0.12996243466349208,0.9987936580882353,0.00041910900172361764,12.152993543942769
171,0.12890864317031467,0.9992532169117647,0.0004137686683267938,12.226628478368124
172,0.12665864452719688,0.9994542738970589,0.0004084384545590719,12.298309445381165
173,0.12872172935920603,0.9989372702205882,0.00040311898594467085,12.369709380467732
174,0.12771885491469326,0.9990808823529411,0.00039781088674681754,12.441101666291555
175,0.12601859758005424,0.9993968290441176,0.0003925147798944881,12.512812089920043
176,0.12835128276663668,0.9991957720588235,0.00038723128690930304,12.583948198954264
177,0.12655988993013606,0.9992532169117647,0.00038196102783259007,12.655436674753824
178,0.12590798691791646,0.9993106617647058,0.00037670462115261914,12.727199614048004
179,0.1253576451802955,0.9992244944852942,0.00037146268373201965,12.79796048005422
180,0.12628725061521812,0.9991957720588235,0.0003662358307353897,12.86966305176417
181,0.12654726251083262,0.9993681066176471,0.00036102467555710287,12.940724082787831
182,0.12590381875634193,0.9992532169117647,0.00035582982974932464,13.012157209714253
183,0.12478453556404394,0.9993681066176471,0.0003506519029502432,13.085208543141682
184,0.12600847903419943,0.9989947150735294,0.00034549150281252633,13.156760390599569
185,0.1273809870814576,0.9990521599264706,0.00034034923493201,13.227728537718455
186,0.12682701756849007,0.9991096047794118,0.0003352257027766298,13.300514364242554
187,0.12674066270975506,0.9989372702205882,0.00033012150761560087,13.371304873625437
188,0.12497975984040428,0.9992819393382353,0.0003250372484488559,13.442511383692423
189,0.12561299323159106,0.9991957720588235,0.0003199735219367508,13.512689661979675
190,0.12538291382438996,0.9993106617647058,0.0003149309223300429,13.58377202351888
191,0.1249852301005055,0.9993393841911765,0.000309910041400154,13.656006928284963
192,0.12260449502397985,0.9993681066176471,0.00030491146836972283,13.72798039118449
193,0.12465318160898545,0.9993681066176471,0.00029993578984345673,13.800180494785309
194,0.1237022232483415,0.9993681066176471,0.000294983589739292,13.872589695453645
195,0.12564458654207342,0.9990808823529411,0.0002900554492198677,13.943258349100748
196,0.12362356089493808,0.9992244944852942,0.00028515194662432405,14.014430932203929
197,0.1261882604483296,0.9990808823529411,0.0002802736574004319,14.085554917653402
198,0.12394834375556778,0.9996266084558824,0.00027542115403706064,14.156793928146362
199,0.12204981376143063,0.9995978860294118,0.0002705950059969948,14.226477519671123
200,0.1234157420694828,0.9994829963235294,0.000265795779650105,14.296825567881266
201,0.12248491583501592,0.99951171875,0.0002610240382068818,14.370301616191863
202,0.12264813701896106,0.9992532169117647,0.0002562803416523405,14.441259531180064
203,0.12372158292461843,0.9993393841911765,0.000251565246680304,14.512059513727824
204,0.1216102404629483,0.9994255514705882,0.000246879306628073,14.58393517335256
205,0.12217538102584727,0.9994829963235294,0.00024222307141148907,14.656012121836344
206,0.12299332811551936,0.9993393841911765,0.00023759708746039977,14.727670995394389
207,0.12267505859627444,0.9993393841911765,0.00023300189765453194,14.798694010575613
208,0.12381890306577963,0.9993681066176471,0.00022843804125978356,14.86913211743037
209,0.12330187199746862,0.9989372702205882,0.00022390605386493756,14.939494582017263
210,0.12298581310931374,0.9992532169117647,0.00021940646731880887,15.00970120827357
211,0.12150283968623947,0.9994829963235294,0.00021493980966782845,15.081869494915008
212,0.12249762236195452,0.9993106617647058,0.00021050660509407576,15.153609093030294
213,0.12449435254230219,0.9990521599264706,0.00020610737385376348,15.224547978242239
214,0.12279764212229673,0.9994255514705882,0.00020174263221618284,15.294894782702128
215,0.12095067102242918,0.9994829963235294,0.00019741289240311755,15.36512947877248
216,0.12329385100918658,0.9988798253676471,0.00019311866252873128,15.436129752794901
217,0.12066703662276268,0.9996266084558824,0.00018886044653993966,15.507495685418446
218,0.1224875465473708,0.9992244944852942,0.000184638744157269,15.578328963120779
219,0.12022328048067935,0.9993968290441176,0.00018045405081621214,15.649083467324575
220,0.12129666393294054,0.9991957720588235,0.00017630685760908622,15.719996909300486
221,0.11969748314689188,0.9996553308823529,0.00017219765122740216,15.791756172974905
222,0.12125308198087356,0.9993393841911765,0.00016812691390474788,15.864262398084005
223,0.12205684031633769,0.9994829963235294,0.00016409512336019698,15.934786140918732
224,0.12145251298651975,0.9993106617647058,0.00016010275274224624,16.00659986337026
225,0.12149687637301053,0.9992532169117647,0.00015615027057328847,16.07799117167791
226,0.11927211722906898,0.99951171875,0.00015223814069463077,16.150809077421822
227,0.1224117059918011,0.9992532169117647,0.00014836682221206,16.224477819601695
228,0.12044870437068098,0.9991383272058824,0.00014453676944196475,16.296603409449258
229,0.12054248943048365,0.9991957720588235,0.00014074843185801883,16.368046987056733
230,0.12021561186103259,0.9994829963235294,0.00013700225403843458,16.439697794119517
231,0.12046689036137917,0.99951171875,0.00013329867561378872,16.5130899031957
232,0.12141514438040116,0.9990521599264706,0.0001296381312154305,16.582620867093404
233,0.12065741989542456,0.9993106617647058,0.00012602105042447482,16.65371173620224
234,0.1204470582306385,0.9991383272058824,0.0001224478577213897,16.723804501692452
235,0.12016600282753215,0.9994829963235294,0.00011891897243618183,16.795617691675822
236,0.12269586982095942,0.9989947150735294,0.00011543480869918555,16.869165333112083
237,0.1192901331712218,0.9994542738970589,0.00011199577539246347,16.940704460938772
238,0.12051133942954681,0.9995691636029411,0.00010860227610182222,17.01223771572113
239,0.1198026774560704,0.9993681066176471,0.00010525470906944917,17.08421767950058
240,0.12111432959928232,0.99951171875,0.00010195346714717812,17.155037971337638
241,0.11963716916301671,0.9992532169117647,9.869893775038557e-05,17.22725115219752
242,0.1199131941094118,0.9995978860294118,9.549150281252633e-05,17.298016583919527
243,0.11964382340802866,0.99951171875,9.233153874031102e-05,17.36865659157435
244,0.11903752408483449,0.9994829963235294,8.921941636953435e-05,17.440642404556275
245,0.11847366261131623,0.9996266084558824,8.615550092155477e-05,17.512185060977934
246,0.11960675326340339,0.9994542738970589,8.31401519604349e-05,17.58563626607259
247,0.1193043506320785,0.9992244944852942,8.017372335074486e-05,17.657202092806497
248,0.12003631035194677,0.9991957720588235,7.725656321603413e-05,17.72834669351578
249,0.11928437080453425,0.9996266084558824,7.43890138979788e-05,17.799376130104065
250,0.11722043003229533,0.9997702205882353,7.157141191620536e-05,17.87116543451945
251,0.11894885735476718,0.9994542738970589,6.880408792879905e-05,17.94334170818329
252,0.11984892649685636,0.9993968290441176,6.60873666934993e-05,18.015712849299113
253,0.11971038601854268,0.9993681066176471,6.342156702958851e-05,18.08624199231466
254,0.12050563338048317,0.9994255514705882,6.080700178047677e-05,18.15855814218521
255,0.11966873135636835,0.9993106617647058,5.8243977776988585e-05,18.228962624073027
256,0.1184875954161672,0.9994829963235294,5.573279580135448e-05,18.30197968482971
257,0.11802571376456934,0.9993681066176471,5.3273750551913246e-05,18.373804438114167
258,0.11855973062269828,0.9993968290441176,5.086713060852788e-05,18.444161025683083
259,0.11765307648216977,0.9994542738970589,4.851321839871908e-05,18.516760448614757
260,0.11981440927175914,0.9994829963235294,4.621229016452155e-05,18.58831552664439
261,0.11760383230798385,0.99951171875,4.3964615930065124e-05,18.661502496401468
262,0.11729042363517425,0.9992819393382353,4.1770459469887e-05,18.73295975923538
263,0.11832940731855,0.9995404411764706,3.963007827797621e-05,18.804441130161287
264,0.11870844421141288,0.9995691636029411,3.754372353755558e-05,18.875668986638388
265,0.1178428911987473,0.99951171875,3.551164009160429e-05,18.94654010931651
266,0.11817340465152965,0.9994542738970589,3.3534066414124486e-05,19.020457736651103
267,0.11798555469688247,0.9995691636029411,3.161123458215553e-05,19.091406548023222
268,0.11858485354220166,0.9991957720588235,2.9743370248538015e-05,19.163030807177226
269,0.12057474167907939,0.9989659926470589,2.7930692615433406e-05,19.23446640173594
270,0.11846770850174568,0.9995404411764706,2.617341440859883e-05,19.30513876279195
271,0.11801427142585025,0.9995978860294118,2.4471741852423235e-05,19.375832931200662
272,0.11813718672184383,0.9994255514705882,2.282587464572594e-05,19.44626638889313
273,0.11716879816616282,0.9995404411764706,2.12360059383212e-05,19.517580461502074
274,0.11820545485791038,0.9992532169117647,1.9702322308350672e-05,19.587653291225433
275,0.11952594886807834,0.9993681066176471,1.8225003740388545e-05,19.65838443040848
276,0.11600188406951287,0.9997127757352942,1.680422360431877e-05,19.730955394109092
277,0.11520345465225332,0.9996266084558824,1.544014863498977e-05,19.80139785607656
278,0.11719328033573487,0.9995978860294118,1.4132938912647276e-05,19.873571622371674
279,0.11717395331053172,0.99951171875,1.288274784414789e-05,19.944790685176848
280,0.11889018731958725,0.9994542738970589,1.1689722144956671e-05,20.016281672318776
281,0.11948230796877075,0.9993393841911765,1.055400182192906e-05,20.08701617717743
282,0.11852448324070257,0.9991383272058824,9.475720156880418e-06,20.157650129000345
283,0.1184978206806323,0.9991957720588235,8.45500369094504e-06,20.22980641523997
284,0.11776462591746274,0.9993968290441176,7.4919722097258055e-06,20.30021906296412
285,0.11872604357845642,0.9992244944852942,6.58673872923693e-06,20.3712229847908
286,0.11848260440370616,0.9996840533088235,5.739409482640901e-06,20.444435234864553
287,0.11869718594586148,0.9992244944852942,4.950083907781733e-06,20.516496773560842
288,0.11742115984944736,0.9995691636029411,4.218854635515301e-06,20.586593874295552
289,0.11802896550473045,0.9995978860294118,3.545807478838814e-06,20.658540014425913
290,0.11632870093864553,0.9996840533088235,2.9310214228202015e-06,20.730620098114013
291,0.11794322444235578,0.9994542738970589,2.3745686153290315e-06,20.804724737008414
292,0.11829688969780416,0.9992532169117647,1.8765143585693922e-06,20.876848975817364
293,0.11641010379090029,0.9996553308823529,1.4369171014165793e-06,20.947513973712923
294,0.1186209033955546,0.9993393841911765,1.0558284325578037e-06,21.01877410809199
295,0.11750477201798383,0.9993393841911765,7.332930744380905e-07,21.089811897277833
296,0.11751261441146627,0.9995404411764706,4.6934887801164396e-07,21.16470151344935
297,0.11790207466658424,0.9995691636029411,2.6402681830023365e-07,21.23678110043208
298,0.11842773832819041,0.9995404411764706,1.173509907579362e-07,21.30732576052348
299,0.1175491906264249,0.9994829963235294,2.933860844345215e-08,21.37764637072881
300,0.11624777755316566,0.9998276654411765,0.0,21.44786942799886
