epoch,loss,top1,lr,minutes
1,3.4615896659738876,0.5701688878676471,0.00010294117647058823,0.09059998591740927
2,2.0456347816130696,0.7900677849264706,0.00020294117647058824,0.15952601035435995
3,1.4675925163661732,0.9016544117647058,0.00030294117647058824,0.2297141989072164
4,1.134305056403665,0.9407456341911765,0.0004029411764705883,0.30029651323954265
5,0.8718130658654606,0.9618278952205882,0.0005029411764705883,0.3720603346824646
6,0.7021227023180794,0.9703297334558824,0.0006029411764705882,0.4457647204399109
7,0.5675763522877413,0.9790326286764706,0.0007029411764705881,0.51744145154953
8,0.47547579162261067,0.9862132352941176,0.0008029411764705883,0.5892294883728028
9,0.4046776399892919,0.9913545496323529,0.0009029411764705882,0.6616930802663167
10,0.3447108794661129,0.9948012408088235,0.001,0.733692181110382
11,0.3188578460146399,0.9945427389705882,0.0009999706613915565,0.8068520824114481
12,0.28322608505978303,0.9968405330882353,0.000999882649009242,0.8783558289210002
13,0.26334958392031055,0.9977883731617647,0.0009997359731816998,0.9488857706387838
14,0.25383558387265487,0.9973575367647058,0.0009995306511219884,1.0198405424753825
15,0.24057877239059,0.9979894301470589,0.0009992667069255619,1.0915506800015768
16,0.2295412548324641,0.9980755974264706,0.0009989441715674422,1.1657878359158833
17,0.22209035692846074,0.9983053768382353,0.0009985630828985835,1.236245850721995
18,0.2157054981764625,0.9987649356617647,0.0009981234856414306,1.3081965446472168
19,0.2081245341721703,0.9987362132352942,0.000997625431384671,1.3793200095494589
20,0.2032497415647787,0.99853515625,0.0009970689785771798,1.4501874049504597
21,0.19759687781333923,0.9985064338235294,0.0009964541925211613,1.5241390705108642
22,0.19140052751583211,0.9987362132352942,0.0009957811453644848,1.596213988463084
23,0.18985197912244237,0.9984777113970589,0.0009950499160922184,1.6691911657651266
24,0.18551917593268788,0.9989372702205882,0.0009942605905173593,1.7405908783276876
25,0.1813550302210976,0.9991957720588235,0.0009934132612707631,1.8119338353474934
26,0.17854398795787027,0.9989372702205882,0.0009925080277902742,1.8858351548512777
27,0.17726190125240998,0.9987074908088235,0.000991544996309055,1.9573087374369302
28,0.17445566066924265,0.9988798253676471,0.0009905242798431196,2.028789230187734
29,0.16842372627819285,0.9992819393382353,0.000989445998178071,2.100366791089376
30,0.16831056948970347,0.9989947150735294,0.0009883102778550433,2.171955959002177
31,0.1649838173214127,0.9992819393382353,0.0009871172521558522,2.2452462315559387
32,0.16161496236043818,0.9994829963235294,0.0009858670610873527,2.3179484168688456
33,0.16031457352287629,0.9989947150735294,0.0009845598513650103,2.389804784456889
34,0.15977185000391567,0.9990234375,0.0009831957763956813,2.4604540864626565
35,0.1582317168221754,0.9991383272058824,0.0009817749962596114,2.5327492634455364
36,0.15406257834504633,0.9995404411764706,0.0009802976776916493,2.6061678926150003
37,0.1530128686743624,0.9996266084558824,0.0009787639940616788,2.6784395217895507
38,0.15144221265526378,0.9995404411764706,0.000977174125354274,2.7517140746116637
39,0.151392383610501,0.9993681066176471,0.0009755282581475768,2.824470814069112
40,0.15020248206222758,0.9992819393382353,0.0009738265855914012,2.892656405766805
41,0.14811455107787075,0.9994542738970589,0.0009720693073845667,2.9631928324699404
42,0.14580918147283442,0.9994542738970589,0.000970256629751462,3.0349704384803773
43,0.1465483150061439,0.9995691636029411,0.0009683887654178445,3.1075361728668214
44,0.1452660867396523,0.9994255514705882,0.0009664659335858754,3.180502430597941
45,0.14168362231815562,0.9995978860294118,0.0009644883599083958,3.2524789730707804
46,0.14254409819841385,0.9997702205882353,0.0009624562764624445,3.326552899678548
47,0.1416894364006379,0.9995691636029411,0.0009603699217220239,3.3984110434850057
48,0.14135984112234676,0.9994255514705882,0.000958229540530113,3.4711561799049377
49,0.14050848825889475,0.9997989430147058,0.000956035384069935,3.5420995155970254
50,0.13937625508098042,0.9996266084558824,0.0009537877098354786,3.613740106423696
51,0.13892774765982346,0.9994829963235294,0.0009514867816012809,3.6865705688794455
52,0.13745011739871082,0.99951171875,0.0009491328693914722,3.7586321314175923
53,0.1365902997991618,0.9995691636029411,0.0009467262494480868,3.830095116297404
54,0.13441658545942867,0.9998276654411765,0.0009442672041986457,3.901835866769155
55,0.13386285874773474,0.9997702205882353,0.0009417560222230115,3.9739320635795594
56,0.1328200299073668,0.9995691636029411,0.0009391929982195233,4.047775224844615
57,0.13327145620303996,0.9996266084558824,0.0009365784329704115,4.119762317339579
58,0.13101164733662324,0.9997414981617647,0.0009339126333065006,4.191258800029755
59,0.13087458032018998,0.9997127757352942,0.000931195912071201,4.262593837579091
60,0.13120158805566676,0.9998563878676471,0.0009284285880837946,4.335765540599823
61,0.13128529401386485,0.9992532169117647,0.0009256109861020212,4.40876936117808
62,0.1309865761329146,0.9998563878676471,0.0009227434367839658,4.481387650966644
63,0.13072290183866725,0.9996553308823529,0.0009198262766492554,4.553679207960765
64,0.12832456542288556,0.9997414981617647,0.0009168598480395651,4.62591788371404
65,0.1279432541307281,0.9998276654411765,0.0009138444990784454,4.696822249889374
66,0.12782971188426018,0.9998276654411765,0.0009107805836304658,4.770892628033956
67,0.1257640463026131,0.9996553308823529,0.000907668461259689,4.842774085203806
68,0.1259166931404787,0.9998276654411765,0.0009045084971874737,4.9151329358418785
69,0.12603968031266155,0.9998563878676471,0.0009013010622496143,4.987120314439138
70,0.1255081212695907,0.9997414981617647,0.0008980465328528219,5.059937099615733
71,0.1266963433693437,0.9996840533088235,0.0008947452909305509,5.133007327715556
72,0.12383604619432897,0.9997702205882353,0.0008913977238981779,5.204840858777364
73,0.12452659536810483,0.9998851102941176,0.0008880042246075365,5.276241628328959
74,0.12325507709208657,0.9997702205882353,0.0008845651913008145,5.3482458670934045
75,0.12339478621588033,0.9996840533088235,0.0008810810275638182,5.420171936353047
76,0.12349129336721756,0.9997414981617647,0.0008775521422786103,5.49414541721344
77,0.12275752469020731,0.9995691636029411,0.0008739789495755254,5.566873264312744
78,0.12159915487555896,0.9996553308823529,0.0008703618687845696,5.638770731290181
79,0.12109786140568116,0.9997989430147058,0.0008667013243862111,5.7067200700442
80,0.12281614695401753,0.9997127757352942,0.0008629977459615654,5.779168498516083
81,0.12074777944123044,0.9997127757352942,0.0008592515681419813,5.853937864303589
82,0.12081856499699985,0.9997414981617647,0.0008554632305580354,5.925453253587087
83,0.11955788074170842,0.9997702205882353,0.00085163317778794,5.99782391389211
84,0.11898667628274244,0.9998851102941176,0.0008477618593053693,6.068423132101695
85,0.11923770453123485,0.9998851102941176,0.0008438497294267117,6.139634402592977
86,0.1188581601223525,0.9996840533088235,0.0008398972472577539,6.212891411781311
87,0.11802736625951879,0.9998851102941176,0.0008359048766398031,6.285131593545278
88,0.11815696122015223,0.9997127757352942,0.0008318730860952522,6.356427943706512
89,0.11786931621677735,0.9997414981617647,0.000827802348772598,6.426933721701304
90,0.11683476738193456,0.9998851102941176,0.0008236931423909139,6.498105243841807
91,0.11793149591368787,0.9999138327205882,0.000819545949183788,6.571793003877004
92,0.11803945153951645,0.9997127757352942,0.0008153612558427309,6.643571778138479
93,0.11767369443002869,0.9997989430147058,0.0008111395534600603,6.715641415119171
94,0.1164744150112657,0.9998276654411765,0.0008068813374712689,6.787113014856974
95,0.117041235899224,0.9997414981617647,0.0008025871075968827,6.858793870608012
96,0.1166268140077591,0.9997127757352942,0.0007982573677838172,6.9322671095530195
97,0.1142610296168748,1.0,0.0007938926261462366,7.003192313512167
98,0.11513897031545639,0.9998276654411765,0.0007894933949059243,7.07414972782135
99,0.11605917706209071,0.9998563878676471,0.0007850601903321716,7.1456801732381185
100,0.11453318749280537,0.9998563878676471,0.0007805935326811913,7.2173531969388325
101,0.11383330931558329,0.9998563878676471,0.0007760939461350624,7.29047083457311
102,0.11399770856780164,0.9998851102941176,0.0007715619587402164,7.362054777145386
103,0.11250785124652526,0.9997702205882353,0.000766998102345468,7.43403095404307
104,0.11428225084262736,0.9998851102941176,0.0007624029125396003,7.506159420808157
105,0.11419042616206057,0.9996840533088235,0.0007577769285885109,7.577880692481995
106,0.11239532578517408,0.9997702205882353,0.0007531206933719271,7.652107695738475
107,0.1126772437025519,0.9998563878676471,0.0007484347533196961,7.72393239736557
108,0.11301232830566518,0.9998276654411765,0.0007437196583476597,7.795575571060181
109,0.11270765806822215,0.9998851102941176,0.0007389759617931182,7.867845078309377
110,0.11206438348573797,0.9998563878676471,0.0007342042203498951,7.9403042236963906
111,0.11248822313021212,0.9998276654411765,0.0007294049940030055,8.015061823527018
112,0.11196981896372403,0.9997989430147058,0.0007245788459629396,8.086512025197347
113,0.11134873023804497,0.9996553308823529,0.0007197263425995681,8.157778386274973
114,0.11044488167938064,0.9999138327205882,0.0007148480533756759,8.230333010355631
115,0.11119105535395005,0.9999138327205882,0.0007099445507801323,8.304198094209035
116,0.11109927406205851,0.9997127757352942,0.000705016410260708,8.377587302525837
117,0.11114297434687614,0.9998563878676471,0.0007000642101565435,8.448870611190795
118,0.11067108853774912,0.9998851102941176,0.0006950885316302773,8.519507531325022
119,0.11052132091101478,0.9997989430147058,0.000690089958599846,8.591473829746246
120,0.11047228228519945,0.9998276654411765,0.0006850690776699572,8.6636022011439
121,0.11055747551076553,0.9998563878676471,0.0006800264780632495,8.737569753328959
122,0.11003185195081375,0.9998276654411765,0.0006749627515511443,8.809355715910593
123,0.11088935285806656,0.9997989430147058,0.0006698784923843993,8.881528230508168
124,0.11016134676687858,0.9998851102941176,0.0006647742972233702,8.954391574859619
125,0.10975186482948415,0.9997702205882353,0.00065965076506799,9.025939051310221
126,0.10872363277217921,0.9999138327205882,0.0006545084971874737,9.098831860224406
127,0.1088108361205634,0.9998276654411765,0.0006493480970497568,9.171901253859202
128,0.10874929848839254,0.9997989430147058,0.0006441701702506753,9.242459634939829
129,0.10823336397023763,0.9999138327205882,0.0006389753244428972,9.313023801644643
130,0.10833347698344904,0.9998276654411765,0.0006337641692646103,9.385131374994915
131,0.10849876285475843,0.9997414981617647,0.0006285373162679804,9.457518748442332
132,0.10863250187214683,0.9998851102941176,0.0006232953788473809,9.529301567872364
133,0.1073540354914525,0.9999138327205882,0.0006180389721674102,9.600847991307576
134,0.10835656282656334,0.9999138327205882,0.0006127687130906971,9.67405237754186
135,0.10623908218215494,0.9998851102941176,0.0006074852201055121,9.746077807744344
136,0.1067851867307635,0.9997414981617647,0.0006021891132531825,9.818324732780457
137,0.10666224952129756,0.9998563878676471,0.0005968810140553292,9.889270985126496
138,0.10671634731047294,0.9999138327205882,0.000591561545440928,9.960780914624532
139,0.10781994593494079,0.9997127757352942,0.0005862313316732063,10.031368617216746
140,0.10700513400575694,0.9999138327205882,0.0005808909982763825,10.102881813049317
141,0.10665875344591982,0.9998851102941176,0.0005755411719622584,10.175738147894542
142,0.10636703867246122,0.9999712775735294,0.0005701824805566722,10.247726202011108
143,0.105023873202941,0.9998563878676471,0.0005648155529258194,10.319272871812185
144,0.10593689824728404,0.9997989430147058,0.0005594410189024533,10.390948228041331
145,0.10531886294484138,0.9997989430147058,0.0005540595092119709,10.462122555573782
146,0.10498740392572739,0.9999712775735294,0.0005486716553983948,10.534655094146729
147,0.10581226318198092,0.9998851102941176,0.0005432780897502588,10.606750619411468
148,0.10566583757891375,0.9997414981617647,0.0005378794452264051,10.67988208134969
149,0.10477485967909589,0.9997702205882353,0.0005324763553817053,10.752657341957093
150,0.105617517934126,0.9997702205882353,0.0005270694542927088,10.82390737136205
151,0.10530063071671654,0.9997702205882353,0.0005216593764832311,10.897404686609905
152,0.10478777022046201,0.9999425551470589,0.0005162467568498903,10.96964011589686
153,0.1052115167326787,0.9996840533088235,0.0005108322305875987,11.04104202191035
154,0.10405971548136543,0.9999712775735294,0.0005054164331150199,11.112118204434713
155,0.1048516295850277,0.9998276654411765,0.0005,11.184157359600068
156,0.10398109344875112,0.9999425551470589,0.0004945835668849801,11.257369220256805
157,0.10386452604742612,0.9997127757352942,0.0004891677694124013,11.328787537415822
158,0.10355858110329684,0.9999138327205882,0.0004837532431501098,11.400463342666626
159,0.10378832435783218,0.9998851102941176,0.00047834062351676893,11.471277197202047
160,0.10342618297128116,0.9999425551470589,0.00047293054570729125,11.543131788571676
161,0.10287037820500486,0.9999425551470589,0.0004675236446182947,11.61711483001709
162,0.10363825563998784,0.9997702205882353,0.00046212055477359496,11.688518087069193
163,0.10384414060150876,0.9997989430147058,0.0004567219102497413,11.759630235036214
164,0.10416770331999835,0.9996840533088235,0.0004513283446016052,11.830702034632365
165,0.10339627984692068,0.9999425551470589,0.0004459404907880292,11.904355597496032
166,0.10266149504219785,0.9998563878676471,0.0004405589810975468,11.97833865483602
167,0.10290112543632002,0.9998563878676471,0.00043518444707418076,12.05043168067932
168,0.10217331349849701,0.9999138327205882,0.00042981751944332785,12.121493073304494
169,0.10181836586664705,0.9997989430147058,0.00042445882803774173,12.193252718448639
170,0.10206959615735446,0.9999138327205882,0.00041910900172361764,12.264456717173259
171,0.1024772925850223,0.9998276654411765,0.0004137686683267938,12.338766074180603
172,0.1026435367324773,0.9998276654411765,0.0004084384545590719,12.409499935309093
173,0.1022900958709857,0.9999425551470589,0.00040311898594467085,12.48077250321706
174,0.10199702465358902,0.9999425551470589,0.00039781088674681754,12.551252841949463
175,0.10266300663352013,0.9998276654411765,0.0003925147798944881,12.622786458333334
176,0.10134728493935921,0.9999138327205882,0.00038723128690930304,12.694973663489025
177,0.10162855246487786,0.9997989430147058,0.00038196102783259007,12.766703228155771
178,0.1010059015277554,1.0,0.00037670462115261914,12.837310175100962
179,0.10123877095825531,0.9999138327205882,0.00037146268373201965,12.908809014161427
180,0.10057845251525149,0.9999712775735294,0.0003662358307353897,12.979953106244405
181,0.10200126995058621,0.9997702205882353,0.00036102467555710287,13.054092689355214
182,0.10211012928801425,0.9996840533088235,0.00035582982974932464,13.126839073499044
183,0.10165841461104505,0.9998851102941176,0.0003506519029502432,13.197557055950165
184,0.10104394178180133,0.9997702205882353,0.00034549150281252633,13.268594797452291
185,0.100861738271573,0.9998276654411765,0.00034034923493201,13.341288244724273
186,0.10026016699917176,0.9999712775735294,0.0003352257027766298,13.414977482954662
187,0.10169596268850215,0.9998851102941176,0.00033012150761560087,13.486122715473176
188,0.10055537061656222,0.9998276654411765,0.0003250372484488559,13.558030966917674
189,0.10088999657069936,0.9998851102941176,0.0003199735219367508,13.629491305351257
190,0.10132563289474039,0.9998563878676471,0.0003149309223300429,13.700620353221893
191,0.10066369723747759,0.9998563878676471,0.000309910041400154,13.77367176214854
192,0.10069104327875025,0.9996840533088235,0.00030491146836972283,13.845762332280477
193,0.1005207232254393,0.9999425551470589,0.00029993578984345673,13.916632688045501
194,0.0997843588976299,0.9998851102941176,0.000294983589739292,13.98855644861857
195,0.10030920058488846,0.9998276654411765,0.0002900554492198677,14.059125947952271
196,0.10017075017094612,0.9998276654411765,0.00028515194662432405,14.131111526489258
197,0.1010994128882885,0.9996266084558824,0.0002802736574004319,14.201887130737305
198,0.0998698597883477,0.9999138327205882,0.00027542115403706064,14.274262948830922
199,0.09902266434886876,0.9999712775735294,0.0002705950059969948,14.34697203238805
200,0.09953866088215042,0.9999425551470589,0.000265795779650105,14.420377639929454
201,0.09942373151288313,0.9998563878676471,0.0002610240382068818,14.494554928938548
202,0.09999492326203514,0.9998276654411765,0.0002562803416523405,14.565924334526063
203,0.09873826341593966,1.0,0.000251565246680304,14.637310826778412
204,0.09917942149674192,0.9998851102941176,0.000246879306628073,14.710025417804719
205,0.09949750562801081,0.9998563878676471,0.00024222307141148907,14.782533288002014
206,0.0998329316430232,0.9998563878676471,0.00023759708746039977,14.855068131287892
207,0.09848853638943504,0.9999712775735294,0.00023300189765453194,14.928225262959797
208,0.09860283377415993,0.9999712775735294,0.00022843804125978356,15.000405093034109
209,0.09866197889342028,0.9998563878676471,0.00022390605386493756,15.07191226085027
210,0.0992565932957565,0.9999138327205882,0.00021940646731880887,15.143434162934621
211,0.09917285052292488,0.9999425551470589,0.00021493980966782845,15.21633837223053
212,0.09814553948886254,0.9999425551470589,0.00021050660509407576,15.288267123699189
213,0.09886943987187218,0.9997989430147058,0.00020610737385376348,15.3589657107989
214,0.09862335354966276,0.9998851102941176,0.00020174263221618284,15.430114038785298
215,0.0978790951125762,0.9998851102941176,0.00019741289240311755,15.501672625541687
216,0.09807675967321676,0.9998851102941176,0.00019311866252873128,15.575519963105519
217,0.0981874476899119,0.9999712775735294,0.00018886044653993966,15.648048877716064
218,0.09804013985044815,1.0,0.000184638744157269,15.719738002618154
219,0.09741881686974974,0.9999138327205882,0.00018045405081621214,15.791864184538523
220,0.09847792457131778,0.9999138327205882,0.00017630685760908622,15.862720878918966
221,0.09820481740376528,0.9998851102941176,0.00017219765122740216,15.935876448949179
222,0.09789401774897295,0.9999425551470589,0.00016812691390474788,16.007788983980813
223,0.0982121847131673,0.9997989430147058,0.00016409512336019698,16.078893172740937
224,0.0978828506434665,0.9999138327205882,0.00016010275274224624,16.151297307014467
225,0.09693281045731376,1.0,0.00015615027057328847,16.22301119963328
226,0.09694939216270167,0.9999425551470589,0.00015223814069463077,16.295219838619232
227,0.09771799493361921,0.9999138327205882,0.00014836682221206,16.36756560007731
228,0.09789709177087336,0.9999712775735294,0.00014453676944196475,16.43830761114756
229,0.09680424893603605,0.9999712775735294,0.00014074843185801883,16.510241413116454
230,0.09866268012453527,0.9996840533088235,0.00013700225403843458,16.582781291007997
231,0.09739561072167228,0.9999425551470589,0.00013329867561378872,16.655547253290813
232,0.09705798897673101,0.9999138327205882,0.0001296381312154305,16.726712822914124
233,0.09732579111176379,1.0,0.00012602105042447482,16.798683138688407
234,0.09689900717314552,0.9999425551470589,0.0001224478577213897,16.87155909538269
235,0.09641073863295947,0.9999712775735294,0.00011891897243618183,16.942442846298217
236,0.09744824973099372,0.9999138327205882,0.00011543480869918555,17.015826547145842
237,0.09686103967182777,0.9999138327205882,0.00011199577539246347,17.08707403341929
238,0.09693617066916298,1.0,0.00010860227610182222,17.158657268683115
239,0.09725590795278549,1.0,0.00010525470906944917,17.229961268107097
240,0.09638472427340115,0.9999712775735294,0.00010195346714717812,17.301605101426443
241,0.09776457070427783,0.9998563878676471,9.869893775038557e-05,17.375147084395092
242,0.09729972350246766,1.0,9.549150281252633e-05,17.446884667873384
243,0.09644180076087222,0.9999138327205882,9.233153874031102e-05,17.517491002877552
244,0.09650165543836706,1.0,8.921941636953435e-05,17.589423088232675
245,0.09753852490993108,0.9997414981617647,8.615550092155477e-05,17.660541820526124
246,0.0966199125875445,1.0,8.31401519604349e-05,17.732383012771606
247,0.09606913433355443,0.9999425551470589,8.017372335074486e-05,17.805963897705077
248,0.09671273016754318,0.9998851102941176,7.725656321603413e-05,17.87918076515198
249,0.0958713306223645,0.9999712775735294,7.43890138979788e-05,17.951744147141774
250,0.09596540274865487,0.9998563878676471,7.157141191620536e-05,18.022253636519114
251,0.09728027398095411,0.9997702205882353,6.880408792879905e-05,18.097192112604777
252,0.09709316097638186,0.9998276654411765,6.60873666934993e-05,18.16958377758662
253,0.09699131767539416,0.9997127757352942,6.342156702958851e-05,18.242713781197867
254,0.09652721224462285,0.9998276654411765,6.080700178047677e-05,18.31549508968989
255,0.09572007287951077,0.9999712775735294,5.8243977776988585e-05,18.388471245765686
256,0.09586966213058024,0.9998851102941176,5.573279580135448e-05,18.463383475939434
257,0.09612046839559779,0.9998851102941176,5.3273750551913246e-05,18.534983881314595
258,0.09701202371541191,0.9998563878676471,5.086713060852788e-05,18.606037147839864
259,0.09572249344166588,0.9999138327205882,4.851321839871908e-05,18.677550021807352
260,0.0956436606014476,1.0,4.621229016452155e-05,18.749507800738016
261,0.09600617451702848,0.9999138327205882,4.3964615930065124e-05,18.824004014333088
262,0.09618895785773501,0.9998276654411765,4.1770459469887e-05,18.89667892853419
263,0.0958004900637795,0.9998276654411765,3.963007827797621e-05,18.968254514535268
264,0.09580368592458613,1.0,3.754372353755558e-05,19.041201746463777
265,0.09602409382076825,0.9997414981617647,3.551164009160429e-05,19.11374311844508
266,0.09636535955702558,0.9999425551470589,3.3534066414124486e-05,19.187086975574495
267,0.09675129064742256,0.9997989430147058,3.161123458215553e-05,19.25845812559128
268,0.09522969319539912,0.9998276654411765,2.9743370248538015e-05,19.33062171936035
269,0.09581476296572124,1.0,2.7930692615433406e-05,19.403244014581045
270,0.09602117932894651,0.9998851102941176,2.617341440859883e-05,19.475608265399934
271,0.09586604443543098,0.9999425551470589,2.4471741852423235e-05,19.549346109231312
272,0.09595987945795059,0.9999138327205882,2.282587464572594e-05,19.622235357761383
273,0.09567276278839391,0.9997989430147058,2.12360059383212e-05,19.69406656821569
274,0.09612796170746579,0.9999712775735294,1.9702322308350672e-05,19.76695113182068
275,0.09578373896725037,0.9999425551470589,1.8225003740388545e-05,19.8394810517629
276,0.09626258559086744,0.9999712775735294,1.680422360431877e-05,19.914276218414308
277,0.09644170039716889,1.0,1.544014863498977e-05,19.98652408917745
278,0.09585723193252788,0.9999712775735294,1.4132938912647276e-05,20.05808957417806
279,0.09536417617517359,1.0,1.288274784414789e-05,20.130698442459106
280,0.09625223695355303,0.9999425551470589,1.1689722144956671e-05,20.203003919124605
281,0.0956754850990632,0.9999138327205882,1.055400182192906e-05,20.27683740456899
282,0.09595195664202466,0.9998563878676471,9.475720156880418e-06,20.349235594272614
283,0.09591108713956441,0.9999712775735294,8.45500369094504e-06,20.42194837729136
284,0.09479400822344948,1.0,7.4919722097258055e-06,20.494835289319358
285,0.09548668409971629,0.9999712775735294,6.58673872923693e-06,20.567100441455842
286,0.09597734011271421,0.9999425551470589,5.739409482640901e-06,20.641003811359404
287,0.09574946366688784,0.9999712775735294,4.950083907781733e-06,20.712443216641745
288,0.09618559370146078,0.9999712775735294,4.218854635515301e-06,20.78476365804672
289,0.09620375230031855,0.9998276654411765,3.545807478838814e-06,20.857203340530397
290,0.09526531003853854,0.9999138327205882,2.9310214228202015e-06,20.92855275074641
291,0.09599014678422142,0.9999712775735294,2.3745686153290315e-06,21.002477010091145
292,0.09591825591290698,0.9999138327205882,1.8765143585693922e-06,21.074998382727305
293,0.09559725444106494,0.9999712775735294,1.4369171014165793e-06,21.147974558671315
294,0.09552343255456756,0.9998276654411765,1.0558284325578037e-06,21.219641506671906
295,0.09566569415961995,0.9999425551470589,7.332930744380905e-07,21.291747013727825
296,0.09518940615303376,0.9999138327205882,4.6934887801164396e-07,21.36458841164907
297,0.09597224829828038,1.0,2.6402681830023365e-07,21.43557649453481
298,0.09561233879888759,1.0,1.173509907579362e-07,21.508384386698406
299,0.09543758696492981,0.9998851102941176,2.933860844345215e-08,21.579906221230825
300,0.0955031078089686,0.9999425551470589,0.0,21.6522283355395
