epoch,loss,top1,lr,minutes
1,3.3685205754111793,0.6470875459558824,0.00010294117647058823,0.08879127899805704
2,1.8248166476978975,0.8504710477941176,0.00020294117647058824,0.15854164361953735
3,1.2998004099901985,0.9282513786764706,0.00030294117647058824,0.22883603970209757
4,1.004830777645111,0.9494772518382353,0.0004029411764705883,0.29836448828379314
5,0.7649405984317555,0.9641831341911765,0.0005029411764705883,0.37270731925964357
6,0.5898289452580845,0.9759593290441176,0.0006029411764705882,0.4442305326461792
7,0.4868510067462921,0.9842888327205882,0.0007029411764705881,0.5164589683214823
8,0.4089290902895086,0.9898322610294118,0.0008029411764705883,0.5890040198961893
9,0.35266362831873055,0.9930204503676471,0.0009029411764705882,0.6606728871663411
10,0.3187107899609734,0.9943991268382353,0.001,0.7328394492467244
11,0.2843593718374477,0.9960363051470589,0.0009999706613915565,0.8073435425758362
12,0.2672057576915797,0.9960650275735294,0.000999882649009242,0.8808227618535359
13,0.24624152437728994,0.9972713694852942,0.0009997359731816998,0.9536379019419352
14,0.2284820811713443,0.9974724264705882,0.0009995306511219884,1.0245053052902222
15,0.21785866995068157,0.9978170955882353,0.0009992667069255619,1.0952733794848124
16,0.21511011483038173,0.9969554227941176,0.0009989441715674422,1.1694347222646078
17,0.20263231414205887,0.9981043198529411,0.0009985630828985835,1.2416986068089804
18,0.19333412366754868,0.9985638786764706,0.0009981234856414306,1.3130506873130798
19,0.1901232197004206,0.9985926011029411,0.000997625431384671,1.3842559456825256
20,0.18596746597219915,0.9978745404411765,0.0009970689785771798,1.4550923426946005
21,0.18130818666780696,0.9983628216911765,0.0009964541925211613,1.5270081917444864
22,0.17502501826075947,0.9986500459558824,0.0009957811453644848,1.5996532877286276
23,0.1745969964300885,0.9985064338235294,0.0009950499160922184,1.6705331047375997
24,0.16893652432105122,0.9988223805147058,0.0009942605905173593,1.7419535477956136
25,0.16938797296846614,0.9985064338235294,0.0009934132612707631,1.8145572304725648
26,0.16400985682711883,0.9989659926470589,0.0009925080277902742,1.8894818743069968
27,0.15948331619010253,0.9989947150735294,0.000991544996309055,1.960181975364685
28,0.1567392918993445,0.9990808823529411,0.0009905242798431196,2.0330104351043703
29,0.1549357929650475,0.9989659926470589,0.000989445998178071,2.105098525683085
30,0.15459122508764267,0.9985926011029411,0.0009883102778550433,2.177254847685496
31,0.1522982317735167,0.9991670496323529,0.0009871172521558522,2.2524883190790814
32,0.15116796642541885,0.9990234375,0.0009858670610873527,2.32381538550059
33,0.14621876574614467,0.9992819393382353,0.0009845598513650103,2.3962409019470217
34,0.14712179583661697,0.9989659926470589,0.0009831957763956813,2.4673556367556255
35,0.14588300357846654,0.9988223805147058,0.0009817749962596114,2.538545513153076
36,0.14512638309422662,0.9990234375,0.0009802976776916493,2.6170811017354327
37,0.14363285504719792,0.9994542738970589,0.0009787639940616788,2.6905086755752565
38,0.14233576900818767,0.9992819393382353,0.000977174125354274,2.7670009175936383
39,0.1412000406314345,0.9992244944852942,0.0009755282581475768,2.843211090564728
40,0.14033816710991018,0.9993106617647058,0.0009738265855914012,2.921458085378011
41,0.13820265496478362,0.9992532169117647,0.0009720693073845667,2.996768561999003
42,0.13530659281155644,0.9994829963235294,0.000970256629751462,3.0694936752319335
43,0.13624506049296436,0.9994542738970589,0.0009683887654178445,3.1416624824206036
44,0.13363613670363145,0.99951171875,0.0009664659335858754,3.214752109845479
45,0.13157536746824489,0.9993393841911765,0.0009644883599083958,3.287115164597829
46,0.13422707950367646,0.9995691636029411,0.0009624562764624445,3.3613708575566608
47,0.13328843147439115,0.9991670496323529,0.0009603699217220239,3.4333008488019305
48,0.13209455065867481,0.9991670496323529,0.000958229540530113,3.507301127910614
49,0.13290035023408778,0.9991096047794118,0.000956035384069935,3.5793621063232424
50,0.13135449106202407,0.9991957720588235,0.0009537877098354786,3.6508423884709678
51,0.12859916117261438,0.9994542738970589,0.0009514867816012809,3.7245714902877807
52,0.1275191605091095,0.9996553308823529,0.0009491328693914722,3.79689538081487
53,0.12804468414362738,0.9992819393382353,0.0009467262494480868,3.8705496788024902
54,0.12764275424620686,0.9994255514705882,0.0009442672041986457,3.9436646064122516
55,0.12797621045919025,0.9993681066176471,0.0009417560222230115,4.0165015935897825
56,0.12679830631789038,0.9994542738970589,0.0009391929982195233,4.090974752108256
57,0.12583394436275258,0.9994542738970589,0.0009365784329704115,4.166570754845937
58,0.12312812270487056,0.9994829963235294,0.0009339126333065006,4.241545569896698
59,0.12367718381916776,0.9994542738970589,0.000931195912071201,4.313227093219757
60,0.12290374343009557,0.9996266084558824,0.0009284285880837946,4.386951633294424
61,0.12128878209520788,0.99951171875,0.0009256109861020212,4.461566321055094
62,0.12502893432974815,0.9988798253676471,0.0009227434367839658,4.535116787751516
63,0.12117692565216738,0.9996553308823529,0.0009198262766492554,4.606772188345591
64,0.12262874534901451,0.9992819393382353,0.0009168598480395651,4.679803991317749
65,0.12106472911203608,0.9995978860294118,0.0009138444990784454,4.751187221209208
66,0.1205999546629541,0.9995404411764706,0.0009107805836304658,4.824518263339996
67,0.12147543798474704,0.9990808823529411,0.000907668461259689,4.897984019915262
68,0.11958428516107447,0.9994255514705882,0.0009045084971874737,4.96983935435613
69,0.12028678331304998,0.9996266084558824,0.0009013010622496143,5.043155483404795
70,0.11870827394373276,0.9994542738970589,0.0008980465328528219,5.114069751898447
71,0.11869433259262759,0.9994829963235294,0.0008947452909305509,5.187238756815592
72,0.11664699018001556,0.99951171875,0.0008913977238981779,5.257889393965403
73,0.11635007621610866,0.9996266084558824,0.0008880042246075365,5.328569110234579
74,0.11654337013469022,0.9997414981617647,0.0008845651913008145,5.3998301982879635
75,0.11608777764965506,0.9997414981617647,0.0008810810275638182,5.470837163925171
76,0.1178619252408252,0.9995404411764706,0.0008775521422786103,5.544239282608032
77,0.11678615804104243,0.9996553308823529,0.0008739789495755254,5.616875024636586
78,0.11720235317068942,0.9994542738970589,0.0008703618687845696,5.688851575056712
79,0.11693497155519093,0.9995978860294118,0.0008667013243862111,5.759710093339284
80,0.11804270941544981,0.9994255514705882,0.0008629977459615654,5.830808726946513
81,0.11468578020439428,0.9997414981617647,0.0008592515681419813,5.903504657745361
82,0.11568083373062751,0.9993681066176471,0.0008554632305580354,5.974617755413055
83,0.11567522169036024,0.9995404411764706,0.00085163317778794,6.0456050634384155
84,0.11458073512596242,0.9995404411764706,0.0008477618593053693,6.116543952624003
85,0.11383187025785446,0.9995978860294118,0.0008438497294267117,6.188353649775187
86,0.114852736101431,0.99951171875,0.0008398972472577539,6.2617709596951805
87,0.11441797828849624,0.9997127757352942,0.0008359048766398031,6.334618377685547
88,0.11339150434907745,0.9996553308823529,0.0008318730860952522,6.405911441644033
89,0.11368189467226758,0.99951171875,0.000827802348772598,6.4775914271672566
90,0.11166916743797414,0.9997414981617647,0.0008236931423909139,6.549383489290873
91,0.11153614762074807,0.9998851102941176,0.000819545949183788,6.62136660416921
92,0.11134973058805746,0.9995691636029411,0.0008153612558427309,6.693276607990265
93,0.11246995584053152,0.9993393841911765,0.0008111395534600603,6.766493852933248
94,0.11257682039457209,0.9993393841911765,0.0008068813374712689,6.838925004005432
95,0.1109388542964178,0.9997127757352942,0.0008025871075968827,6.909479757150014
96,0.11037769584971316,0.9997989430147058,0.0007982573677838172,6.980784225463867
97,0.11119475390981226,0.99951171875,0.0007938926261462366,7.051308317979177
98,0.11164870814365499,0.9995691636029411,0.0007894933949059243,7.1227091709772745
99,0.10908978081801358,0.9998563878676471,0.0007850601903321716,7.19481147925059
100,0.11085891592151978,0.9996266084558824,0.0007805935326811913,7.265422519048055
101,0.11138342781101956,0.9995978860294118,0.0007760939461350624,7.338220620155335
102,0.11078442852286731,0.9996266084558824,0.0007715619587402164,7.409412860870361
103,0.11236319625202347,0.9994829963235294,0.000766998102345468,7.479409372806549
104,0.10941589426468401,0.9997414981617647,0.0007624029125396003,7.550774653752645
105,0.11081417452763109,0.9993393841911765,0.0007577769285885109,7.62240161895752
106,0.10870781979140114,0.9997702205882353,0.0007531206933719271,7.696483012040456
107,0.10826031074804418,0.9997702205882353,0.0007484347533196961,7.767557652791341
108,0.10819642289596446,0.9996266084558824,0.0007437196583476597,7.837824443976085
109,0.10685774552471497,0.9998276654411765,0.0007389759617931182,7.90963100194931
110,0.10848554727785728,0.9996840533088235,0.0007342042203498951,7.981044439474742
111,0.10700880736112595,0.9998276654411765,0.0007294049940030055,8.052089329560598
112,0.1058625055148321,0.9998563878676471,0.0007245788459629396,8.122560266653696
113,0.10782080406651777,0.9996840533088235,0.0007197263425995681,8.193238480885823
114,0.1075389098156901,0.9996266084558824,0.0007148480533756759,8.264750436941783
115,0.10790513784569852,0.9994829963235294,0.0007099445507801323,8.33519956668218
116,0.10774697801646065,0.9997414981617647,0.000705016410260708,8.408860536416372
117,0.10684557324823211,0.9996266084558824,0.0007000642101565435,8.479288522402445
118,0.1061571466133875,0.9996553308823529,0.0006950885316302773,8.550473062197367
119,0.10659429693923277,0.9997702205882353,0.000690089958599846,8.62105569044749
120,0.10511183344265994,0.9998276654411765,0.0006850690776699572,8.693955433368682
121,0.10440781186608707,0.9997127757352942,0.0006800264780632495,8.766801524162293
122,0.10628469923839849,0.9997702205882353,0.0006749627515511443,8.837766106923421
123,0.10776658115141532,0.99951171875,0.0006698784923843993,8.908666201432546
124,0.10484663024544716,0.9999138327205882,0.0006647742972233702,8.979719126224518
125,0.10583436795893837,0.9997127757352942,0.00065965076506799,9.050241724650066
126,0.10426301706363172,0.9997414981617647,0.0006545084971874737,9.122681224346161
127,0.10491353404872558,0.9996266084558824,0.0006493480970497568,9.194699418544769
128,0.104010562028955,0.9997414981617647,0.0006441701702506753,9.26563401222229
129,0.10414266871178851,0.9996553308823529,0.0006389753244428972,9.336712392171224
130,0.10438495852491435,0.9997702205882353,0.0006337641692646103,9.407018224398294
131,0.10551008078105309,0.99951171875,0.0006285373162679804,9.479004963239033
132,0.10558632848893895,0.9995978860294118,0.0006232953788473809,9.55201937754949
133,0.10531204040436183,0.9997414981617647,0.0006180389721674102,9.62420161565145
134,0.1040211199399303,0.9996840533088235,0.0006127687130906971,9.694808355967204
135,0.10518653931863167,0.9997702205882353,0.0006074852201055121,9.76719861427943
136,0.10481554949108292,0.9998276654411765,0.0006021891132531825,9.839081486066183
137,0.10616843709174324,0.9996266084558824,0.0005968810140553292,9.911449551582336
138,0.10426444056279519,0.9998851102941176,0.000591561545440928,9.982591092586517
139,0.10273366355720688,0.9997702205882353,0.0005862313316732063,10.054146031538645
140,0.10269836928038036,0.9996266084558824,0.0005808909982763825,10.126054938634237
141,0.10312138826531522,0.9997702205882353,0.0005755411719622584,10.198943340778351
142,0.10477620582370197,0.9995691636029411,0.0005701824805566722,10.2700146317482
143,0.10341796563828692,0.9997989430147058,0.0005648155529258194,10.34072235027949
144,0.10510069964563146,0.99951171875,0.0005594410189024533,10.4146240234375
145,0.10323113619404681,0.9998276654411765,0.0005540595092119709,10.485589547952015
146,0.10243312795372571,0.9997414981617647,0.0005486716553983948,10.558572403589885
147,0.10342208120752783,0.9997989430147058,0.0005432780897502588,10.629146993160248
148,0.10207455057431669,0.9998276654411765,0.0005378794452264051,10.699917542934418
149,0.10427524719168157,0.9994829963235294,0.0005324763553817053,10.772174354394277
150,0.10391677346299677,0.9996553308823529,0.0005270694542927088,10.841481765111288
151,0.10254374168374959,0.9996840533088235,0.0005216593764832311,10.915808085600535
152,0.10187249499208786,0.9997702205882353,0.0005162467568498903,10.987145555019378
153,0.10139317175044733,0.9998276654411765,0.0005108322305875987,11.059360639254253
154,0.1019707392243778,0.9995978860294118,0.0005054164331150199,11.129429682095845
155,0.10171040388591149,0.9997414981617647,0.0005,11.201458231608074
156,0.10045644334133934,0.9999425551470589,0.0004945835668849801,11.273541688919067
157,0.1008648486698375,0.9998276654411765,0.0004891677694124013,11.343516639868419
158,0.10081467120086446,0.9998851102941176,0.0004837532431501098,11.414399166901907
159,0.09987753936473061,0.9999138327205882,0.00047834062351676893,11.486040671666464
160,0.10070155736278086,0.9998563878676471,0.00047293054570729125,11.557010094324747
161,0.10038415999973521,0.9997989430147058,0.0004675236446182947,11.629214624563852
162,0.1002891208319103,0.9997702205882353,0.00046212055477359496,11.700448969999949
163,0.1010042737950297,0.9998851102941176,0.0004567219102497413,11.77211233774821
164,0.10087999679586467,0.9999425551470589,0.0004513283446016052,11.843924192587535
165,0.10015909746289253,0.9997989430147058,0.0004459404907880292,11.914912041028341
166,0.10231335088610649,0.99951171875,0.0004405589810975468,11.988021993637085
167,0.09968075156211853,0.9999138327205882,0.00043518444707418076,12.059881826241812
168,0.10029089275528402,0.9998276654411765,0.00042981751944332785,12.132818949222564
169,0.10195132410701584,0.9997414981617647,0.00042445882803774173,12.203295290470123
170,0.100553309873623,0.9998276654411765,0.00041910900172361764,12.275247009595235
171,0.10005824903354925,0.9999425551470589,0.0004137686683267938,12.348228025436402
172,0.09901856915915713,0.9999138327205882,0.0004084384545590719,12.420701297124227
173,0.1001932178350056,0.9998563878676471,0.00040311898594467085,12.491690361499787
174,0.09871795379063662,0.9997127757352942,0.00039781088674681754,12.561452670892079
175,0.09924713872811373,0.9996840533088235,0.0003925147798944881,12.637091422080994
176,0.09826687482350013,0.9998276654411765,0.00038723128690930304,12.712364037831625
177,0.09931589443893994,0.9995978860294118,0.00038196102783259007,12.782358547051748
178,0.09855962478939224,0.9998563878676471,0.00037670462115261914,12.857710838317871
179,0.09881747798884616,0.9998563878676471,0.00037146268373201965,12.93076418240865
180,0.09895306825637817,0.9997989430147058,0.0003662358307353897,13.002391628424327
181,0.09768738531891037,0.9997702205882353,0.00036102467555710287,13.07571212053299
182,0.09837659053942736,0.9998563878676471,0.00035582982974932464,13.14779550631841
183,0.09855847038766917,0.9998851102941176,0.0003506519029502432,13.220879471302032
184,0.09873142838478088,0.9999425551470589,0.00034549150281252633,13.29181764125824
185,0.09967419088763349,0.9996840533088235,0.00034034923493201,13.363740742206573
186,0.09887874542790301,0.9998276654411765,0.0003352257027766298,13.438475875059764
187,0.09809109480941997,0.9997702205882353,0.00033012150761560087,13.511462211608887
188,0.09736673862618558,0.9997702205882353,0.0003250372484488559,13.585432839393615
189,0.09848046149401103,0.9995691636029411,0.0003199735219367508,13.65828754901886
190,0.0982637565363856,0.9998851102941176,0.0003149309223300429,13.73321225643158
191,0.09774382916443489,1.0,0.000309910041400154,13.806839509805043
192,0.09706505366107997,0.9998851102941176,0.00030491146836972283,13.880535435676574
193,0.09694466345450457,0.9999138327205882,0.00029993578984345673,13.953253746032715
194,0.09779439165311701,0.9995978860294118,0.000294983589739292,14.02688961426417
195,0.09754844798761256,0.9999138327205882,0.0002900554492198677,14.099895083904267
196,0.09771393699681058,0.9997414981617647,0.00028515194662432405,14.17171842654546
197,0.0973378891015754,0.9997414981617647,0.0002802736574004319,14.24220066467921
198,0.09668117936919718,0.9999425551470589,0.00027542115403706064,14.312453862031301
199,0.09673689831705655,0.9998851102941176,0.0002705950059969948,14.385466047128041
200,0.096062471761423,0.9998563878676471,0.000265795779650105,14.45635746717453
201,0.0960736421539503,0.9998851102941176,0.0002610240382068818,14.531204664707184
202,0.09665235175805933,0.9998851102941176,0.0002562803416523405,14.602018328507741
203,0.09711566151064985,0.9997989430147058,0.000251565246680304,14.672613521416983
204,0.095671417301192,0.9999138327205882,0.000246879306628073,14.744053256511688
205,0.09653555185479276,0.9998563878676471,0.00024222307141148907,14.81524616877238
206,0.09529897307648379,0.9998563878676471,0.00023759708746039977,14.886433331171672
207,0.09768305675071828,0.9996840533088235,0.00023300189765453194,14.956984468301137
208,0.0963937186581247,0.9997702205882353,0.00022843804125978356,15.027406096458435
209,0.09682739547946874,0.9999138327205882,0.00022390605386493756,15.099189118544261
210,0.09550036818665616,1.0,0.00021940646731880887,15.171100111802419
211,0.09563901691752322,0.9998851102941176,0.00021493980966782845,15.244916450977325
212,0.09628074638107244,0.9999425551470589,0.00021050660509407576,15.315177019437154
213,0.09641397393801633,0.9994829963235294,0.00020610737385376348,15.387636482715607
214,0.0959350238828098,0.9997127757352942,0.00020174263221618284,15.459151832262675
215,0.09504806469468509,0.9997989430147058,0.00019741289240311755,15.530715942382812
216,0.09540028782451854,0.9999712775735294,0.00019311866252873128,15.6055908203125
217,0.09521693802055191,0.9998563878676471,0.00018886044653993966,15.677251295248668
218,0.09626524413333219,0.9998276654411765,0.000184638744157269,15.749606323242187
219,0.094682976603508,0.9999712775735294,0.00018045405081621214,15.8213543176651
220,0.09563412013299324,0.9998563878676471,0.00017630685760908622,15.893520812193552
221,0.0955388329046614,0.9998851102941176,0.00017219765122740216,15.96615096728007
222,0.09647154260207624,0.9999712775735294,0.00016812691390474788,16.038205858071645
223,0.0956822221770006,0.9999425551470589,0.00016409512336019698,16.1121866941452
224,0.0948387029416421,0.9999712775735294,0.00016010275274224624,16.182614131768545
225,0.0949038771145484,0.9999138327205882,0.00015615027057328847,16.255383265018462
226,0.09534705276874934,0.9996553308823529,0.00015223814069463077,16.327999099095663
227,0.09555985099252533,0.9998563878676471,0.00014836682221206,16.399293696880342
228,0.09408129028537694,0.9999425551470589,0.00014453676944196475,16.470367749532063
229,0.09537254054756726,0.9997127757352942,0.00014074843185801883,16.541625269254048
230,0.09505852487157374,0.9998851102941176,0.00013700225403843458,16.612489620844524
231,0.09404454226879512,0.9998563878676471,0.00013329867561378872,16.68694224357605
232,0.09460189237314112,0.9997127757352942,0.0001296381312154305,16.760147126515708
233,0.09436397868044236,0.9998563878676471,0.00012602105042447482,16.832132442792258
234,0.09500978229676976,0.9998563878676471,0.0001224478577213897,16.904484494527182
235,0.09436988852479879,0.9997702205882353,0.00011891897243618183,16.977412847677865
236,0.09578526458319496,0.9997702205882353,0.00011543480869918555,17.05028561751048
237,0.09501707247074913,0.9997989430147058,0.00011199577539246347,17.12178488175074
238,0.09430058300495148,0.9998851102941176,0.00010860227610182222,17.19506544272105
239,0.09524235940154861,0.9997127757352942,0.00010525470906944917,17.2667165239652
240,0.09395210751715828,0.9998851102941176,0.00010195346714717812,17.338273616631827
241,0.09428808706648209,0.9998276654411765,9.869893775038557e-05,17.413665930430096
242,0.09328785823548541,0.9998851102941176,9.549150281252633e-05,17.48622361024221
243,0.09371695557937902,0.9999425551470589,9.233153874031102e-05,17.559058769543967
244,0.09373612088315628,0.9999138327205882,8.921941636953435e-05,17.630513946215313
245,0.0938273223445696,1.0,8.615550092155477e-05,17.70287894407908
246,0.09440372007734635,0.9998851102941176,8.31401519604349e-05,17.776175685723622
247,0.09351240690140163,0.9998851102941176,8.017372335074486e-05,17.847282926241558
248,0.09357025627704228,0.9998851102941176,7.725656321603413e-05,17.920577907562254
249,0.09460616199409261,0.9999138327205882,7.43890138979788e-05,17.99183449347814
250,0.09383378155967768,0.9997989430147058,7.157141191620536e-05,18.064487294356027
251,0.0943567099816659,0.9998563878676471,6.880408792879905e-05,18.136474510033924
252,0.09476863132680163,0.9997702205882353,6.60873666934993e-05,18.20791114171346
253,0.09428027403705261,0.9998563878676471,6.342156702958851e-05,18.279392421245575
254,0.09394327485386063,0.9997414981617647,6.080700178047677e-05,18.35039681593577
255,0.09369673711412094,0.9998851102941176,5.8243977776988585e-05,18.422191361586254
256,0.09419172761194847,0.9998851102941176,5.573279580135448e-05,18.494846455256145
257,0.09443395015071421,0.9996840533088235,5.3273750551913246e-05,18.56664211352666
258,0.0927008215118857,0.9999425551470589,5.086713060852788e-05,18.637549920876822
259,0.09375633803360603,0.9998563878676471,4.851321839871908e-05,18.709746646881104
260,0.09421938416712425,0.9998276654411765,4.621229016452155e-05,18.781952313582103
261,0.09307766771491836,0.9999138327205882,4.3964615930065124e-05,18.85473552544912
262,0.09296483349274187,0.9998851102941176,4.1770459469887e-05,18.926022668679554
263,0.09333025116254301,0.9998851102941176,3.963007827797621e-05,18.99765795469284
264,0.09417600031284724,0.9998851102941176,3.754372353755558e-05,19.07064208984375
265,0.09399610231904422,0.9997989430147058,3.551164009160429e-05,19.141955745220184
266,0.0930803821367376,0.9998851102941176,3.3534066414124486e-05,19.216803105672202
267,0.09319523919154615,0.9998563878676471,3.161123458215553e-05,19.289320580164592
268,0.0932646880255026,0.9997702205882353,2.9743370248538015e-05,19.36154909133911
269,0.09394672381527283,0.9997989430147058,2.7930692615433406e-05,19.432357533772787
270,0.09434043002479217,0.9998851102941176,2.617341440859883e-05,19.50367654164632
271,0.09377509267891154,0.9999425551470589,2.4471741852423235e-05,19.575773859024046
272,0.09298653769142487,0.9999712775735294,2.282587464572594e-05,19.646569434801737
273,0.0934002519968678,0.9998276654411765,2.12360059383212e-05,19.718585391839344
274,0.09339531642549179,0.9998851102941176,1.9702322308350672e-05,19.791625793774923
275,0.0932848457904423,0.9999425551470589,1.8225003740388545e-05,19.864280378818513
276,0.0928933854927035,0.9999712775735294,1.680422360431877e-05,19.937146651744843
277,0.09246602128533755,0.9999712775735294,1.544014863498977e-05,20.008053823312125
278,0.09385022258057314,0.9997702205882353,1.4132938912647276e-05,20.08019241094589
279,0.09335241401020218,1.0,1.288274784414789e-05,20.151857229073844
280,0.09336890477467985,0.9998851102941176,1.1689722144956671e-05,20.223304470380146
281,0.093247330364059,0.9999138327205882,1.055400182192906e-05,20.296170115470886
282,0.0927662404582781,0.9999712775735294,9.475720156880418e-06,20.367653965950012
283,0.09293094825218706,0.9998851102941176,8.45500369094504e-06,20.43851367632548
284,0.09260707239017767,0.9997989430147058,7.4919722097258055e-06,20.510564323266347
285,0.09304272186230211,0.9999712775735294,6.58673872923693e-06,20.58187568585078
286,0.09333809903439354,0.9998851102941176,5.739409482640901e-06,20.653954044977823
287,0.09296050229493309,0.9999712775735294,4.950083907781733e-06,20.726561184724172
288,0.09317036915351362,0.9999138327205882,4.218854635515301e-06,20.797429398695627
289,0.0933533994590535,0.9998851102941176,3.545807478838814e-06,20.869805626074474
290,0.09241677141364883,0.9998563878676471,2.9310214228202015e-06,20.942278083165487
291,0.09265784480992485,0.9998851102941176,2.3745686153290315e-06,21.017716733614602
292,0.0932675928753965,0.9997989430147058,1.8765143585693922e-06,21.09048360188802
293,0.09216528648839277,1.0,1.4369171014165793e-06,21.162247292200725
294,0.09260577949530938,0.9998563878676471,1.0558284325578037e-06,21.23442792892456
295,0.09314497582176152,0.9998851102941176,7.332930744380905e-07,21.304768121242525
296,0.09325538992005236,0.9998276654411765,4.6934887801164396e-07,21.37780677874883
297,0.0934203453361988,0.9998851102941176,2.6402681830023365e-07,21.449461646874745
298,0.0932815118747599,0.9998851102941176,1.173509907579362e-07,21.522333677609762
299,0.0927253126659814,0.9997702205882353,2.933860844345215e-08,21.592908771832786
300,0.09294123377870112,0.9999712775735294,0.0,21.66532233953476
