epoch,loss,top1,lr,minutes
1,3.6312355223823998,0.5457548253676471,0.00010294117647058823,0.09198911190032959
2,2.1826710245188545,0.7631548713235294,0.00020294117647058824,0.16234598954518636
3,1.5529606026761673,0.8907111672794118,0.00030294117647058824,0.23220449686050415
4,1.19517701513627,0.9337086397058824,0.0004029411764705883,0.3014094074567159
5,0.9221633357160232,0.95751953125,0.0005029411764705883,0.37292052507400514
6,0.726351285682005,0.9690372242647058,0.0006029411764705882,0.44486278692881265
7,0.5756431625169867,0.9783145680147058,0.0007029411764705881,0.5155016620953877
8,0.48442310971372265,0.9862132352941176,0.0008029411764705883,0.5862328171730041
9,0.41157685746164885,0.9904354319852942,0.0009029411764705882,0.6556761384010314
10,0.353340290925082,0.9948874080882353,0.001,0.7254160086313883
11,0.3206996102543438,0.9951746323529411,0.0009999706613915565,0.7971655329068502
12,0.2929140338126351,0.9962373621323529,0.000999882649009242,0.867517101764679
13,0.27303545878214,0.9969841452205882,0.0009997359731816998,0.9374292453130086
14,0.2570601381799754,0.9976160386029411,0.0009995306511219884,1.0076828996340434
15,0.24611595229190938,0.9973862591911765,0.0009992667069255619,1.0786211212476096
16,0.23311793628860922,0.9981043198529411,0.0009989441715674422,1.1512214183807372
17,0.22486516701824524,0.9981043198529411,0.0009985630828985835,1.2206616004308064
18,0.21792452475603888,0.9983053768382353,0.0009981234856414306,1.2904219309488931
19,0.2114119463983704,0.9983915441176471,0.000997625431384671,1.3606135567029318
20,0.20502004553289974,0.9986213235294118,0.0009970689785771798,1.430855429172516
21,0.2010475984391044,0.9985064338235294,0.0009964541925211613,1.5015490333239236
22,0.19565960545750224,0.9986500459558824,0.0009957811453644848,1.5703116655349731
23,0.18979580086820266,0.9986500459558824,0.0009950499160922184,1.6397268772125244
24,0.18764417443205328,0.9987362132352942,0.0009942605905173593,1.7107120394706725
25,0.18208951590692296,0.9989659926470589,0.0009934132612707631,1.7815416256586711
26,0.1782745263155769,0.9988798253676471,0.0009925080277902742,1.8526922067006428
27,0.17615664049106486,0.9989659926470589,0.000991544996309055,1.921608857313792
28,0.17283136616734898,0.9991096047794118,0.0009905242798431196,1.9913343787193298
29,0.17269296505871942,0.9991383272058824,0.000989445998178071,2.061004114151001
30,0.16879890026415095,0.9991670496323529,0.0009883102778550433,2.131598790486654
31,0.16676155696896947,0.9990234375,0.0009871172521558522,2.2048130075136823
32,0.16507663271006415,0.9990234375,0.0009858670610873527,2.2773653229077655
33,0.15975768382058425,0.9991670496323529,0.0009845598513650103,2.3486027359962462
34,0.15992737868252924,0.9990521599264706,0.0009831957763956813,2.4158464630444842
35,0.15574756922090754,0.99951171875,0.0009817749962596114,2.485387412707011
36,0.15495661777608535,0.9991670496323529,0.0009802976776916493,2.558232895533244
37,0.15246633878525565,0.9997127757352942,0.0009787639940616788,2.6284261027971905
38,0.1510374524137553,0.9993681066176471,0.000977174125354274,2.6999472618103026
39,0.1500183484133552,0.9994542738970589,0.0009755282581475768,2.770305323600769
40,0.14925234458025763,0.9992244944852942,0.0009738265855914012,2.8418857574462892
41,0.1473619241048308,0.9994542738970589,0.0009720693073845667,2.91503301858902
42,0.14874974594396703,0.9990808823529411,0.000970256629751462,2.9851582527160643
43,0.14656026398434358,0.9993968290441176,0.0009683887654178445,3.0569690267244973
44,0.14286825017017477,0.9996840533088235,0.0009664659335858754,3.1275617122650146
45,0.14186050918172388,0.9994255514705882,0.0009644883599083958,3.199384570121765
46,0.1426417919642785,0.9991096047794118,0.0009624562764624445,3.2732345700263976
47,0.14146242553696914,0.9998276654411765,0.0009603699217220239,3.3442951838175454
48,0.141602185280884,0.9991957720588235,0.000958229540530113,3.4159990310668946
49,0.13888783139341018,0.9993968290441176,0.000956035384069935,3.4867321054140725
50,0.13890205893446417,0.9996266084558824,0.0009537877098354786,3.5585604826609294
51,0.13788762907771504,0.9994829963235294,0.0009514867816012809,3.6301007072130838
52,0.13667602354989333,0.9996266084558824,0.0009491328693914722,3.7005890448888143
53,0.1343619556111448,0.99951171875,0.0009467262494480868,3.7705891410509746
54,0.1341412001672913,0.9999138327205882,0.0009442672041986457,3.841410231590271
55,0.13400533444741192,0.9997414981617647,0.0009417560222230115,3.910499334335327
56,0.13360092876588597,0.9997414981617647,0.0009391929982195233,3.984775519371033
57,0.13254702617140376,0.9994542738970589,0.0009365784329704115,4.055690205097198
58,0.13254917369169347,0.9995978860294118,0.0009339126333065006,4.126919921239217
59,0.1312654049080961,0.9997702205882353,0.000931195912071201,4.19760043223699
60,0.1317815579035703,0.9995404411764706,0.0009284285880837946,4.267896405855814
61,0.13070856012842236,0.9997702205882353,0.0009256109861020212,4.340246295928955
62,0.12866359795717633,0.9997414981617647,0.0009227434367839658,4.410088340441386
63,0.13013864067547462,0.9997702205882353,0.0009198262766492554,4.481506065527598
64,0.1286973602631513,0.9996553308823529,0.0009168598480395651,4.552015169461568
65,0.12862292677164078,0.9997127757352942,0.0009138444990784454,4.621997980276744
66,0.1274388268151704,0.9995691636029411,0.0009107805836304658,4.695313926537832
67,0.12756984527496731,0.9997414981617647,0.000907668461259689,4.766570047537486
68,0.12641455846674302,0.9997127757352942,0.0009045084971874737,4.836559613545735
69,0.1271949664634817,0.9997702205882353,0.0009013010622496143,4.906991203625997
70,0.12511157178703478,0.9997127757352942,0.0008980465328528219,4.979503532250722
71,0.12535114235737743,0.9997989430147058,0.0008947452909305509,5.053337784608205
72,0.12593693943584666,0.9995691636029411,0.0008913977238981779,5.124351572990418
73,0.12380656994440976,0.9996553308823529,0.0008880042246075365,5.19124337832133
74,0.12321794449406512,0.9995404411764706,0.0008845651913008145,5.26160876750946
75,0.12217686675927218,0.9996266084558824,0.0008810810275638182,5.330866769949595
76,0.12334299766842056,0.9997127757352942,0.0008775521422786103,5.403424425919851
77,0.12370290409992724,0.9997414981617647,0.0008739789495755254,5.47330975929896
78,0.12261186123770826,0.9998563878676471,0.0008703618687845696,5.544689929485321
79,0.12156113039921312,0.9998276654411765,0.0008667013243862111,5.615560710430145
80,0.122346841456259,0.9997989430147058,0.0008629977459615654,5.686210076014201
81,0.12046562091392629,0.9998563878676471,0.0008592515681419813,5.7585313002268474
82,0.11994561662568766,0.9995978860294118,0.0008554632305580354,5.829441380500794
83,0.12031040384488947,0.9999138327205882,0.00085163317778794,5.901151402791341
84,0.11942255672286539,0.9997989430147058,0.0008477618593053693,5.972408358256022
85,0.11837101661983658,0.9997989430147058,0.0008438497294267117,6.043125947316487
86,0.11961977183818817,0.9997702205882353,0.0008398972472577539,6.115109101931254
87,0.11943228477064301,0.9996266084558824,0.0008359048766398031,6.185914468765259
88,0.11824738190454595,0.9997414981617647,0.0008318730860952522,6.256253623962403
89,0.11918148595620603,0.9998851102941176,0.000827802348772598,6.326889228820801
90,0.11906990080195315,0.9996266084558824,0.0008236931423909139,6.397158396244049
91,0.1181804123608505,0.9998851102941176,0.000819545949183788,6.4701491038004555
92,0.11842853159588926,0.9997127757352942,0.0008153612558427309,6.541526937484742
93,0.11796736213214257,0.9997414981617647,0.0008111395534600603,6.611973742643992
94,0.11785968458827804,0.9997989430147058,0.0008068813374712689,6.68378271261851
95,0.11628333084723529,0.9999425551470589,0.0008025871075968827,6.756575977802276
96,0.11574948425678645,0.9996266084558824,0.0007982573677838172,6.8292775511741635
97,0.11625385547385496,0.9996266084558824,0.0007938926261462366,6.9007370909055075
98,0.11599369325182017,0.9997989430147058,0.0007894933949059243,6.97037056684494
99,0.11574264681514572,0.9996840533088235,0.0007850601903321716,7.042020519574483
100,0.11521839021759875,0.9997414981617647,0.0007805935326811913,7.112770084540049
101,0.11463649286066785,0.9998276654411765,0.0007760939461350624,7.184479224681854
102,0.11407049679580857,0.9997702205882353,0.0007715619587402164,7.254020702838898
103,0.11481081168441211,0.9999138327205882,0.000766998102345468,7.32505487203598
104,0.11342093721032143,0.9998851102941176,0.0007624029125396003,7.396617170174917
105,0.11342417974682416,0.9997702205882353,0.0007577769285885109,7.467395158608754
106,0.11266514286398888,0.9997702205882353,0.0007531206933719271,7.541752803325653
107,0.11382872348322588,0.9997414981617647,0.0007484347533196961,7.610663938522339
108,0.11328166767078288,0.9998563878676471,0.0007437196583476597,7.681964568297068
109,0.11354415929492782,0.9998851102941176,0.0007389759617931182,7.7523033857345585
110,0.11244115956565913,0.9999712775735294,0.0007342042203498951,7.824241177241007
111,0.11378582720370854,0.9997414981617647,0.0007294049940030055,7.899635513623555
112,0.11220156401395798,0.9998563878676471,0.0007245788459629396,7.965585509936015
113,0.11265111955649712,0.9998563878676471,0.0007197263425995681,8.038314116001128
114,0.11154781544909757,0.9999138327205882,0.0007148480533756759,8.105666641394297
115,0.11072179872323484,0.9998276654411765,0.0007099445507801323,8.17621214389801
116,0.11052439909647493,0.9999712775735294,0.000705016410260708,8.248880251248677
117,0.11092147296842407,0.9998851102941176,0.0007000642101565435,8.319052509466808
118,0.11063763455433004,0.9998276654411765,0.0006950885316302773,8.391356003284454
119,0.1106303548988174,0.9997414981617647,0.000690089958599846,8.461641275882721
120,0.10997872120317291,0.9999425551470589,0.0006850690776699572,8.533131976922354
121,0.1100723250385593,0.9997127757352942,0.0006800264780632495,8.604478796323141
122,0.11002731104107465,0.9997127757352942,0.0006749627515511443,8.675925803184509
123,0.11019560957656187,0.9998563878676471,0.0006698784923843993,8.746988010406493
124,0.10941781782928635,0.9998563878676471,0.0006647742972233702,8.817970244089762
125,0.11040953042752602,0.9997989430147058,0.00065965076506799,8.891148440043132
126,0.1087855354827993,0.9999138327205882,0.0006545084971874737,8.963764743010204
127,0.10955291942638509,0.9995691636029411,0.0006493480970497568,9.035807430744171
128,0.10942383110523224,0.9998851102941176,0.0006441701702506753,9.1065909186999
129,0.10833506790154121,0.9999425551470589,0.0006389753244428972,9.17745619614919
130,0.10918479237486334,0.9998563878676471,0.0006337641692646103,9.249047299226126
131,0.10902533263844602,0.9998563878676471,0.0006285373162679804,9.321846203009288
132,0.10827330302666216,0.9998276654411765,0.0006232953788473809,9.393956891695659
133,0.1086648516356945,0.9998851102941176,0.0006180389721674102,9.465094872315724
134,0.10794013081228032,0.9998276654411765,0.0006127687130906971,9.535920671621959
135,0.1070150345125619,0.9998851102941176,0.0006074852201055121,9.608683788776398
136,0.10783662230652921,0.9999138327205882,0.0006021891132531825,9.681819423039753
137,0.10709451818290878,0.9997989430147058,0.0005968810140553292,9.752443997065226
138,0.1063641794025898,0.9996553308823529,0.000591561545440928,9.82275501092275
139,0.10717574682305842,0.9999138327205882,0.0005862313316732063,9.895403957366943
140,0.10709667622166522,0.9996840533088235,0.0005808909982763825,9.965852173169454
141,0.10695662809645429,0.9999425551470589,0.0005755411719622584,10.038271307945251
142,0.10639365126981455,0.9998851102941176,0.0005701824805566722,10.108657153447469
143,0.10647972432129524,0.9999138327205882,0.0005648155529258194,10.180651466051737
144,0.10609372332692146,0.9998563878676471,0.0005594410189024533,10.251648553212483
145,0.10713848296333761,0.9998563878676471,0.0005540595092119709,10.323182463645935
146,0.10615297187777127,0.9998563878676471,0.0005486716553983948,10.396988189220428
147,0.1052599792533061,1.0,0.0005432780897502588,10.467836248874665
148,0.1045581402585787,0.9998851102941176,0.0005378794452264051,10.54016983906428
149,0.10523266761618502,0.9998851102941176,0.0005324763553817053,10.611467504501343
150,0.10580411158940371,1.0,0.0005270694542927088,10.681985155741375
151,0.105933497495511,0.9997414981617647,0.0005216593764832311,10.749408833185832
152,0.10421686531866298,0.9996266084558824,0.0005162467568498903,10.819612999757132
153,0.10624740579549004,0.9999425551470589,0.0005108322305875987,10.891266206900278
154,0.10488589173730682,0.9997414981617647,0.0005054164331150199,10.962385590871175
155,0.10449010856887873,0.9999425551470589,0.0005,11.033154924710592
156,0.10527386647813461,0.9997702205882353,0.0004945835668849801,11.10698014497757
157,0.1040033546879011,0.9999138327205882,0.0004891677694124013,11.17790511449178
158,0.10355278411332298,0.9999425551470589,0.0004837532431501098,11.249151754379273
159,0.10449710992329261,0.9997414981617647,0.00047834062351676893,11.31969010035197
160,0.10372810591669644,0.9999712775735294,0.00047293054570729125,11.389470799763997
161,0.1039205331574468,0.9997127757352942,0.0004675236446182947,11.461655175685882
162,0.10347855244489278,0.9999138327205882,0.00046212055477359496,11.532359087467194
163,0.10416736190809923,0.9997702205882353,0.0004567219102497413,11.602445912361144
164,0.10311866442070287,0.9999425551470589,0.0004513283446016052,11.672407531738282
165,0.10475592709639493,0.9997127757352942,0.0004459404907880292,11.743235301971435
166,0.10340920068761882,0.9997127757352942,0.0004405589810975468,11.814549199740092
167,0.1022326227496652,0.9999425551470589,0.00043518444707418076,11.885631306966145
168,0.1016988465014626,0.9998851102941176,0.00042981751944332785,11.955545099576314
169,0.10293151131447624,0.9999425551470589,0.00042445882803774173,12.025069630146026
170,0.10223272289423381,0.9999712775735294,0.00041910900172361764,12.095249621073405
171,0.1015365196063238,0.9999425551470589,0.0004137686683267938,12.167584121227264
172,0.10158692541367867,0.9999425551470589,0.0004084384545590719,12.237227698167166
173,0.10114383127759485,1.0,0.00040311898594467085,12.308876828352611
174,0.10241814790403142,0.9997414981617647,0.00039781088674681754,12.379669205347698
175,0.10264195720939075,0.9997989430147058,0.0003925147798944881,12.450099956989288
176,0.10222416239626267,0.9998851102941176,0.00038723128690930304,12.522587915261587
177,0.10153348634348196,0.9999425551470589,0.00038196102783259007,12.593117515246073
178,0.10210559232270017,0.9999712775735294,0.00037670462115261914,12.663770310084026
179,0.10132442064145032,0.9999138327205882,0.00037146268373201965,12.735884181658427
180,0.1020941324532032,0.9999712775735294,0.0003662358307353897,12.806289613246918
181,0.10170744315666311,0.9998851102941176,0.00036102467555710287,12.879425291220347
182,0.1019703184857088,0.9997702205882353,0.00035582982974932464,12.94853853782018
183,0.10135671233429629,0.9998276654411765,0.0003506519029502432,13.018501242001852
184,0.1007627360522747,0.9998276654411765,0.00034549150281252633,13.089103309313456
185,0.10189373747390859,0.9998276654411765,0.00034034923493201,13.161189810434978
186,0.10081334981848211,0.9999712775735294,0.0003352257027766298,13.235423560937246
187,0.10049725959406179,0.9999425551470589,0.00033012150761560087,13.306034354368846
188,0.10055769432116957,0.9998851102941176,0.0003250372484488559,13.375044500827789
189,0.10089848343940343,0.9998851102941176,0.0003199735219367508,13.444424291451773
190,0.10033279153354027,0.9999425551470589,0.0003149309223300429,13.515136516094207
191,0.10032619798884672,0.9999425551470589,0.000309910041400154,13.586136476198833
192,0.10029832953039337,0.9999425551470589,0.00030491146836972283,13.656472170352936
193,0.09989780647789731,0.9999425551470589,0.00029993578984345673,13.72774730126063
194,0.09990282707354602,1.0,0.000294983589739292,13.797186950842539
195,0.100540829493719,1.0,0.0002900554492198677,13.867145868142446
196,0.10044932694119565,0.9998563878676471,0.00028515194662432405,13.940226972103119
197,0.09961574349333258,0.9999425551470589,0.0002802736574004319,14.011434686183929
198,0.1002716088996214,0.9999425551470589,0.00027542115403706064,14.08253608942032
199,0.09971355756416041,0.9998276654411765,0.0002705950059969948,14.153772807121277
200,0.0996667668223381,0.9998276654411765,0.000265795779650105,14.22803670167923
201,0.0990755577736041,0.9998276654411765,0.0002610240382068818,14.302233703931172
202,0.100159299943377,0.9999712775735294,0.0002562803416523405,14.372109985351562
203,0.09852993904667742,1.0,0.000251565246680304,14.439840451876323
204,0.10004570817246157,0.9998851102941176,0.000246879306628073,14.515037377675375
205,0.09891115742571213,0.9999138327205882,0.00024222307141148907,14.587272759278616
206,0.0992356473032166,0.9998276654411765,0.00023759708746039977,14.662383159001669
207,0.09913365981158088,0.9998563878676471,0.00023300189765453194,14.73377164999644
208,0.0985419853206943,1.0,0.00022843804125978356,14.805409669876099
209,0.09832512324347216,0.9999425551470589,0.00022390605386493756,14.87690159479777
210,0.09855020725551773,0.9999425551470589,0.00021940646731880887,14.949566531181336
211,0.09927802094641854,0.9999712775735294,0.00021493980966782845,15.021347626050312
212,0.09927633536212585,0.9998563878676471,0.00021050660509407576,15.092431565125784
213,0.09913941538509201,0.9998276654411765,0.00020610737385376348,15.16283758878708
214,0.09869533010265406,0.9996840533088235,0.00020174263221618284,15.233466935157775
215,0.09818929368082215,0.9998276654411765,0.00019741289240311755,15.303599854310354
216,0.09846359841963824,0.9999712775735294,0.00019311866252873128,15.376635571320852
217,0.0975928466547938,0.9999425551470589,0.00018886044653993966,15.44650164047877
218,0.09851642435087878,0.9997989430147058,0.000184638744157269,15.517322583993275
219,0.09848091334981077,0.9998276654411765,0.00018045405081621214,15.588638655344646
220,0.09783296462367563,0.9999425551470589,0.00017630685760908622,15.659825734297435
221,0.09790510903386508,0.9998276654411765,0.00017219765122740216,15.731301442782085
222,0.09773311676347957,0.9999712775735294,0.00016812691390474788,15.800241601467132
223,0.09798396926592379,0.9999712775735294,0.00016409512336019698,15.869529600938161
224,0.09835758082130376,0.9999138327205882,0.00016010275274224624,15.939774719874064
225,0.09779786252800156,1.0,0.00015615027057328847,16.010901804765066
226,0.09704218848663218,0.9999425551470589,0.00015223814069463077,16.08319696187973
227,0.09754329985555481,0.9999712775735294,0.00014836682221206,16.152385103702546
228,0.09671100119457525,0.9999425551470589,0.00014453676944196475,16.22266640663147
229,0.09706535475218997,0.9999712775735294,0.00014074843185801883,16.29264120658239
230,0.0978492851204732,0.9998563878676471,0.00013700225403843458,16.36395058234533
231,0.09747488007825963,0.9997989430147058,0.00013329867561378872,16.435919348398844
232,0.09702066244447932,0.9999712775735294,0.0001296381312154305,16.50571003754934
233,0.0967599922681556,1.0,0.00012602105042447482,16.575355490048725
234,0.09770675091182485,0.9998276654411765,0.0001224478577213897,16.64580832719803
235,0.09720821897773181,0.9997702205882353,0.00011891897243618183,16.716088140010832
236,0.09727277694379582,0.9998851102941176,0.00011543480869918555,16.788297271728517
237,0.09634184267591028,0.9999425551470589,0.00011199577539246347,16.85832994778951
238,0.0973874602247687,0.9999425551470589,0.00010860227610182222,16.928219095865884
239,0.09726052402573473,0.9999138327205882,0.00010525470906944917,16.99941565990448
240,0.09679036565563258,0.9998563878676471,0.00010195346714717812,17.070687596003214
241,0.0973532581154038,0.9999712775735294,9.869893775038557e-05,17.143087462584177
242,0.0974448614698999,0.9998851102941176,9.549150281252633e-05,17.21416329542796
243,0.09622228123685893,0.9998851102941176,9.233153874031102e-05,17.28446729183197
244,0.09700019811006154,0.9998851102941176,8.921941636953435e-05,17.354831683635712
245,0.09679143547135241,0.9999425551470589,8.615550092155477e-05,17.424720788002013
246,0.09699676996644806,0.9997127757352942,8.31401519604349e-05,17.49682225783666
247,0.09609485855873894,1.0,8.017372335074486e-05,17.56779865026474
248,0.09689910600290579,0.9999425551470589,7.725656321603413e-05,17.63829952875773
249,0.09634097775115687,0.9999712775735294,7.43890138979788e-05,17.709716463088988
250,0.09668082765796605,1.0,7.157141191620536e-05,17.780717964967092
251,0.09592963163467015,0.9999138327205882,6.880408792879905e-05,17.85221876700719
252,0.09643688118633102,0.9998276654411765,6.60873666934993e-05,17.9221448858579
253,0.09663278609514236,0.9998276654411765,6.342156702958851e-05,17.991382515430452
254,0.09669286691967179,0.9998851102941176,6.080700178047677e-05,18.062172583738963
255,0.09578125726650744,0.9999138327205882,5.8243977776988585e-05,18.133178981145225
256,0.09697971909361727,0.9999712775735294,5.573279580135448e-05,18.20504390001297
257,0.09605408810517367,1.0,5.3273750551913246e-05,18.27655425866445
258,0.09592749791986802,0.9998851102941176,5.086713060852788e-05,18.346558407942453
259,0.09590295767959427,0.9999425551470589,4.851321839871908e-05,18.415443245569865
260,0.09602617340929367,0.9998276654411765,4.621229016452155e-05,18.4853546778361
261,0.09616295642712537,0.9999712775735294,4.3964615930065124e-05,18.557404685020447
262,0.09536491290611379,0.9999138327205882,4.1770459469887e-05,18.628194642066955
263,0.09604383128530838,0.9999712775735294,3.963007827797621e-05,18.698515486717223
264,0.09631237256176331,0.9998563878676471,3.754372353755558e-05,18.768867659568787
265,0.09622662185746081,0.9999425551470589,3.551164009160429e-05,18.839907809098563
266,0.09601569066152853,0.9999425551470589,3.3534066414124486e-05,18.910762373606364
267,0.0960035234251443,0.9999425551470589,3.161123458215553e-05,18.980710113048552
268,0.09550243879065794,0.9999138327205882,2.9743370248538015e-05,19.050250470638275
269,0.09609211827902232,0.9997702205882353,2.7930692615433406e-05,19.120439354578654
270,0.09548639593755498,0.9999138327205882,2.617341440859883e-05,19.191370165348054
271,0.09592415852581754,0.9999138327205882,2.4471741852423235e-05,19.26240456899007
272,0.09579302699250333,0.9999138327205882,2.282587464572594e-05,19.331801068782806
273,0.09554325723472763,0.9999138327205882,2.12360059383212e-05,19.402168933550517
274,0.09493968833018751,0.9999712775735294,1.9702322308350672e-05,19.470947031180064
275,0.09580266081234988,0.9999712775735294,1.8225003740388545e-05,19.541225202878316
276,0.09567861741080004,0.9998563878676471,1.680422360431877e-05,19.61342967748642
277,0.09596147870316225,0.9998563878676471,1.544014863498977e-05,19.68425201177597
278,0.09545568245298722,0.9999138327205882,1.4132938912647276e-05,19.753987459341683
279,0.0949411026256926,0.9999138327205882,1.288274784414789e-05,19.823561084270477
280,0.09548201915972374,1.0,1.1689722144956671e-05,19.895059402783712
281,0.09564712840844602,0.9999712775735294,1.055400182192906e-05,19.968393743038177
282,0.09546934112029917,0.9999425551470589,9.475720156880418e-06,20.038757610321046
283,0.09543330704464632,0.9998276654411765,8.45500369094504e-06,20.109856323401132
284,0.09628243306103874,0.9998851102941176,7.4919722097258055e-06,20.17942285935084
285,0.09506820405230802,1.0,6.58673872923693e-06,20.25014015038808
286,0.09557452447274152,0.9998276654411765,5.739409482640901e-06,20.324318567911785
287,0.09533907692222034,0.9999712775735294,4.950083907781733e-06,20.396753760178886
288,0.09505596866502482,0.9999712775735294,4.218854635515301e-06,20.468712214628855
289,0.09510071378420382,0.9999712775735294,3.545807478838814e-06,20.53816257317861
290,0.09539918360464714,0.9999138327205882,2.9310214228202015e-06,20.60792618195216
291,0.09507235818926026,0.9999712775735294,2.3745686153290315e-06,20.681077774365743
292,0.09535747240571414,0.9999712775735294,1.8765143585693922e-06,20.752578910191854
293,0.09602886832812253,0.9999712775735294,1.4369171014165793e-06,20.82277997334798
294,0.09594007647212814,0.9997989430147058,1.0558284325578037e-06,20.894550069173178
295,0.09558864398037686,0.9999425551470589,7.332930744380905e-07,20.96620101928711
296,0.09500735428403406,0.9998851102941176,4.6934887801164396e-07,21.03817823330561
297,0.09544570437249016,0.9998851102941176,2.6402681830023365e-07,21.108739213148752
298,0.09550597562509425,0.9998276654411765,1.173509907579362e-07,21.17939554055532
299,0.09582169178654165,0.9999712775735294,2.933860844345215e-08,21.250435245037078
300,0.09563317500493106,0.9997989430147058,0.0,21.321464518706005
