epoch,loss,top1,lr,minutes
1,3.793283364352058,0.5170036764705882,0.00010294117647058823,0.09061129093170166
2,2.1393770189846264,0.7773150275735294,0.00020294117647058824,0.1610933780670166
3,1.5551027480293722,0.8928079044117647,0.00030294117647058824,0.23153965473175048
4,1.2028732334866243,0.9336224724264706,0.0004029411764705883,0.3062590519587199
5,0.9168794365490184,0.9551068474264706,0.0005029411764705883,0.37866657177607216
6,0.7049780908752891,0.9696691176470589,0.0006029411764705882,0.45268181562423704
7,0.5786809921264648,0.9791187959558824,0.0007029411764705881,0.5252471009890238
8,0.48132118056802187,0.9860409007352942,0.0008029411764705883,0.5988238096237183
9,0.4124974108794156,0.9906652113970589,0.0009029411764705882,0.6699139396349589
10,0.37033021450042725,0.9921300551470589,0.001,0.7408097982406616
11,0.3311440944671631,0.9942555147058824,0.0009999706613915565,0.8167593121528626
12,0.310046886696535,0.9951746323529411,0.000999882649009242,0.8900388836860657
13,0.2849498820655486,0.99609375,0.0009997359731816998,0.9608298937479655
14,0.265372893827803,0.9960075827205882,0.0009995306511219884,1.0330209891001383
15,0.25318948968368415,0.9969267003676471,0.0009992667069255619,1.105030926068624
16,0.24957660454161026,0.9959214154411765,0.0009989441715674422,1.1789360483487448
17,0.23609328138477662,0.9973862591911765,0.0009985630828985835,1.2513087034225463
18,0.22788053531857097,0.9971564797794118,0.0009981234856414306,1.323294198513031
19,0.22045479934005177,0.9977022058823529,0.000997625431384671,1.3939575950304668
20,0.21706324114519007,0.9968118106617647,0.0009970689785771798,1.466471823056539
21,0.2100636354264091,0.9975011488970589,0.0009964541925211613,1.5379339853922527
22,0.20202919008100734,0.9980755974264706,0.0009957811453644848,1.609285052617391
23,0.20072358890491374,0.9975011488970589,0.0009950499160922184,1.6813942988713582
24,0.1974497178898138,0.9977883731617647,0.0009942605905173593,1.7540065089861552
25,0.19368387320462396,0.9976734834558824,0.0009934132612707631,1.8266940474510194
26,0.1888829815913649,0.998046875,0.0009925080277902742,1.8987796545028686
27,0.182518151753089,0.9983915441176471,0.000991544996309055,1.971723167101542
28,0.1808059894863297,0.9982192095588235,0.0009905242798431196,2.044400219122569
29,0.17754769412910237,0.9984202665441176,0.000989445998178071,2.1156495134035747
30,0.17911210612339132,0.9977883731617647,0.0009883102778550433,2.188080298900604
31,0.17580635275910883,0.9983053768382353,0.0009871172521558522,2.2634497761726378
32,0.17505293295663946,0.9982766544117647,0.0009858670610873527,2.335227640469869
33,0.16930057634325588,0.9983915441176471,0.0009845598513650103,2.4057516853014627
34,0.16894089518224492,0.9979607077205882,0.0009831957763956813,2.478843013445536
35,0.16661438126774394,0.9983628216911765,0.0009817749962596114,2.551444431145986
36,0.16723883020527222,0.9982766544117647,0.0009802976776916493,2.6277588566144305
37,0.1655037389958606,0.9987074908088235,0.0009787639940616788,2.701926668485006
38,0.1636204522322206,0.9984202665441176,0.000977174125354274,2.7799172679583233
39,0.16196217387914658,0.9983915441176471,0.0009755282581475768,2.8562697847684224
40,0.16073318264063666,0.9988511029411765,0.0009738265855914012,2.9320136348406476
41,0.15948008570600958,0.9987649356617647,0.0009720693073845667,3.0089232961336774
42,0.15474445241339066,0.9988798253676471,0.000970256629751462,3.0812145113945006
43,0.15493163510280497,0.9991957720588235,0.0009683887654178445,3.1539063930511473
44,0.15218956768512726,0.9989372702205882,0.0009664659335858754,3.225849711894989
45,0.1518003283178105,0.9986787683823529,0.0009644883599083958,3.298672028382619
46,0.1544560886481229,0.9987074908088235,0.0009624562764624445,3.372805635134379
47,0.15276873330859578,0.9986500459558824,0.0009603699217220239,3.4445283810297647
48,0.14951341117129607,0.9987649356617647,0.000958229540530113,3.518334098656972
49,0.15196886001264348,0.9985064338235294,0.000956035384069935,3.5904158393541974
50,0.15091366057886796,0.9988223805147058,0.0009537877098354786,3.660947366555532
51,0.14716852719292922,0.9988511029411765,0.0009514867816012809,3.7349595030148826
52,0.14588564327534506,0.9990234375,0.0009491328693914722,3.808406678835551
53,0.14526852833874085,0.9989372702205882,0.0009467262494480868,3.880812160174052
54,0.14611632113947587,0.9988223805147058,0.0009442672041986457,3.9534933527310687
55,0.14601066577083924,0.9991383272058824,0.0009417560222230115,4.027664637565612
56,0.14575091661775813,0.9989372702205882,0.0009391929982195233,4.1059189438819885
57,0.144142387982677,0.9988798253676471,0.0009365784329704115,4.178638966878255
58,0.1402613319018308,0.9989947150735294,0.0009339126333065006,4.250881429513296
59,0.14235983131562963,0.9991670496323529,0.000931195912071201,4.324686098098755
60,0.1404668224208495,0.9990808823529411,0.0009284285880837946,4.398063695430755
61,0.13782173921080196,0.9990808823529411,0.0009256109861020212,4.472598389784495
62,0.1415662121246843,0.9987074908088235,0.0009227434367839658,4.543759461243948
63,0.13831428350771174,0.9994255514705882,0.0009198262766492554,4.615114200115204
64,0.1391754018909791,0.9987936580882353,0.0009168598480395651,4.686218929290772
65,0.13569602282608256,0.9993681066176471,0.0009138444990784454,4.75874871412913
66,0.13608460062566927,0.9989947150735294,0.0009107805836304658,4.833917363484701
67,0.13788102786330617,0.9985926011029411,0.000907668461259689,4.907576107978821
68,0.13586773591883042,0.9989372702205882,0.0009045084971874737,4.980102201302846
69,0.13657367185634725,0.9987936580882353,0.0009013010622496143,5.051116482416789
70,0.13505981884458484,0.9988223805147058,0.0008980465328528219,5.121350558598836
71,0.13540235863012426,0.9988223805147058,0.0008947452909305509,5.194536777337392
72,0.1328521995421718,0.9990808823529411,0.0008913977238981779,5.26530217329661
73,0.1313580721616745,0.9993681066176471,0.0008880042246075365,5.3384157657623295
74,0.13182774624403784,0.9992532169117647,0.0008845651913008145,5.409147854646047
75,0.131766146815875,0.9993106617647058,0.0008810810275638182,5.481551082928975
76,0.13337003308184006,0.9989372702205882,0.0008775521422786103,5.555195569992065
77,0.13026466768454104,0.9993681066176471,0.0008739789495755254,5.627320508162181
78,0.1321925599785412,0.9987362132352942,0.0008703618687845696,5.698349034786224
79,0.13324772237854846,0.9990521599264706,0.0008667013243862111,5.771087141831716
80,0.13183539623723312,0.9989947150735294,0.0008629977459615654,5.8422856569290165
81,0.12928713595165925,0.9991957720588235,0.0008592515681419813,5.9167511622111
82,0.13024499552214847,0.9988223805147058,0.0008554632305580354,5.98838084936142
83,0.1301231712979429,0.9989372702205882,0.00085163317778794,6.0597517172495525
84,0.12819358136724024,0.9991957720588235,0.0008477618593053693,6.131413356463114
85,0.12885840872631354,0.9990234375,0.0008438497294267117,6.202908011277517
86,0.12822648115894375,0.9991096047794118,0.0008398972472577539,6.274817212422689
87,0.12828969473347945,0.9992244944852942,0.0008359048766398031,6.346778849760692
88,0.1276665634530432,0.9993681066176471,0.0008318730860952522,6.41897786060969
89,0.12853529698708477,0.9992532169117647,0.000827802348772598,6.490265337626139
90,0.12496644543374286,0.9993968290441176,0.0008236931423909139,6.562041799227397
91,0.12483073683346019,0.9995404411764706,0.000819545949183788,6.635146983464559
92,0.1250645465710584,0.9991957720588235,0.0008153612558427309,6.705803449948629
93,0.12541061815093546,0.9989659926470589,0.0008111395534600603,6.778217526276906
94,0.12494692556998309,0.9992819393382353,0.0008068813374712689,6.848279881477356
95,0.12581271108459025,0.9990521599264706,0.0008025871075968827,6.9193375905354815
96,0.12569213329869158,0.9994829963235294,0.0007982573677838172,6.992696583271027
97,0.12482327507699237,0.9991670496323529,0.0007938926261462366,7.063193738460541
98,0.125117600621546,0.9991670496323529,0.0007894933949059243,7.133217068513234
99,0.12284734910901855,0.99951171875,0.0007850601903321716,7.205015162626903
100,0.12378656141021672,0.9992244944852942,0.0007805935326811913,7.275078539053599
101,0.12523523279849222,0.9989372702205882,0.0007760939461350624,7.348924382527669
102,0.12435378243818003,0.9991383272058824,0.0007715619587402164,7.420256018638611
103,0.12450654169215876,0.9993681066176471,0.000766998102345468,7.491438003381093
104,0.1215398206430323,0.9995404411764706,0.0007624029125396003,7.563829139868418
105,0.1226707352873157,0.9991096047794118,0.0007577769285885109,7.636171154181162
106,0.12122141241150744,0.99951171875,0.0007531206933719271,7.709481406211853
107,0.12407859984566183,0.9992244944852942,0.0007484347533196961,7.780506479740143
108,0.12017585424815908,0.9994255514705882,0.0007437196583476597,7.851462237040201
109,0.12052836904630941,0.9994829963235294,0.0007389759617931182,7.9204106569290165
110,0.12110583571826711,0.9994255514705882,0.0007342042203498951,7.991192082564036
111,0.11879329120411593,0.9996266084558824,0.0007294049940030055,8.062970320383707
112,0.11901260627543225,0.9995404411764706,0.0007245788459629396,8.133206252257029
113,0.12006938194527346,0.9994542738970589,0.0007197263425995681,8.205081244309744
114,0.12042658710304428,0.9992532169117647,0.0007148480533756759,8.275689625740052
115,0.12156068314524258,0.9989947150735294,0.0007099445507801323,8.346378294626872
116,0.12074264423812137,0.9994255514705882,0.000705016410260708,8.41963787873586
117,0.1183907060938723,0.9992819393382353,0.0007000642101565435,8.491091501712798
118,0.11717422635239713,0.9994829963235294,0.0006950885316302773,8.562111643950145
119,0.11866842955350876,0.9994829963235294,0.000690089958599846,8.633104236920675
120,0.1184887574876056,0.9995691636029411,0.0006850690776699572,8.70442827542623
121,0.11695202374283005,0.9993968290441176,0.0006800264780632495,8.776998198032379
122,0.11914405007572736,0.9993968290441176,0.0006749627515511443,8.846608114242553
123,0.11968037003979963,0.9994255514705882,0.0006698784923843993,8.9177796403567
124,0.1163753446410684,0.9996266084558824,0.0006647742972233702,8.98757876555125
125,0.11832779163823408,0.9992819393382353,0.00065965076506799,9.059284845987955
126,0.11606763741549324,0.9994829963235294,0.0006545084971874737,9.131270722548168
127,0.11680532619357109,0.9990521599264706,0.0006493480970497568,9.201827347278595
128,0.11478538986514597,0.9995404411764706,0.0006441701702506753,9.273468085130055
129,0.11619123115259058,0.9993968290441176,0.0006389753244428972,9.343290122350057
130,0.1149544560295694,0.9996840533088235,0.0006337641692646103,9.414619060357412
131,0.11660474056706709,0.9993968290441176,0.0006285373162679804,9.486806158224741
132,0.11770562170182958,0.9993968290441176,0.0006232953788473809,9.55987751086553
133,0.11791560930364273,0.9993393841911765,0.0006180389721674102,9.631729491551717
134,0.11562469798852415,0.9993681066176471,0.0006127687130906971,9.702498300870259
135,0.11698769142522532,0.99951171875,0.0006074852201055121,9.775882236162822
136,0.1169669220552725,0.9995404411764706,0.0006021891132531825,9.848303870360057
137,0.11784165922333212,0.9990808823529411,0.0005968810140553292,9.920343339443207
138,0.11596126766765819,0.99951171875,0.000591561545440928,9.99128973086675
139,0.11399145577760304,0.9997127757352942,0.0005862313316732063,10.062943947315215
140,0.11698896043440875,0.9991383272058824,0.0005808909982763825,10.13409849802653
141,0.11410827080116552,0.9995978860294118,0.0005755411719622584,10.206237188975017
142,0.11573174069909488,0.9993393841911765,0.0005701824805566722,10.278267029921214
143,0.11510040150845752,0.9996266084558824,0.0005648155529258194,10.35001271168391
144,0.11584223280934726,0.9992532169117647,0.0005594410189024533,10.422230609258015
145,0.11468471520963837,0.9995404411764706,0.0005540595092119709,10.492942508061727
146,0.11364284048185629,0.9994542738970589,0.0005486716553983948,10.565496468544007
147,0.11402964197537478,0.9995978860294118,0.0005432780897502588,10.638081661860149
148,0.1140909129205872,0.9995978860294118,0.0005378794452264051,10.709554688135784
149,0.11513125217136215,0.9993106617647058,0.0005324763553817053,10.781886863708497
150,0.11471742764115334,0.9994829963235294,0.0005270694542927088,10.853315591812134
151,0.11445917693131111,0.9993968290441176,0.0005216593764832311,10.926845427354177
152,0.11283507285749211,0.9996840533088235,0.0005162467568498903,10.999245953559875
153,0.11327985915191033,0.9995978860294118,0.0005108322305875987,11.070495649178822
154,0.11329624736133743,0.9994255514705882,0.0005054164331150199,11.141115077336629
155,0.11410627382643082,0.9993106617647058,0.0005,11.21155948638916
156,0.11142208953114117,0.9997127757352942,0.0004945835668849801,11.28391616344452
157,0.11203756884616964,0.9996266084558824,0.0004891677694124013,11.354422370592753
158,0.11235171534559306,0.9994255514705882,0.0004837532431501098,11.42499861717224
159,0.11223987051669289,0.9994829963235294,0.00047834062351676893,11.4966970205307
160,0.11253142356872559,0.9995978860294118,0.00047293054570729125,11.567918308575948
161,0.11141214585479568,0.9996266084558824,0.0004675236446182947,11.642065028349558
162,0.1114566985736875,0.9994542738970589,0.00046212055477359496,11.712594612439473
163,0.11121182932573206,0.9997127757352942,0.0004567219102497413,11.784499708811442
164,0.11189322765259181,0.9995978860294118,0.0004513283446016052,11.855333944161734
165,0.11106114944114405,0.9996266084558824,0.0004459404907880292,11.926782162984212
166,0.11288694336133845,0.9993393841911765,0.0004405589810975468,11.999040385087332
167,0.11120429722701802,0.9996553308823529,0.00043518444707418076,12.068989423910777
168,0.11182671807268087,0.9994829963235294,0.00042981751944332785,12.139738400777182
169,0.11403429442468811,0.9995691636029411,0.00042445882803774173,12.211477184295655
170,0.1116382679080262,0.9996266084558824,0.00041910900172361764,12.284273815155029
171,0.11055197917363223,0.9996266084558824,0.0004137686683267938,12.35734414656957
172,0.10975865011706072,0.9997127757352942,0.0004084384545590719,12.42937574783961
173,0.11148193785372902,0.9994255514705882,0.00040311898594467085,12.504946660995483
174,0.11026546096100527,0.9994542738970589,0.00039781088674681754,12.575452836354573
175,0.1098079284762635,0.9996553308823529,0.0003925147798944881,12.648237681388855
176,0.11008208091644679,0.9995978860294118,0.00038723128690930304,12.722657775878906
177,0.11068971148308586,0.9995691636029411,0.00038196102783259007,12.795620954036712
178,0.10987061327871155,0.9996266084558824,0.00037670462115261914,12.868438005447388
179,0.10971959680318832,0.9995978860294118,0.00037146268373201965,12.939323774973552
180,0.10941457069095444,0.9995404411764706,0.0003662358307353897,13.011304211616515
181,0.10753725666333647,0.9994829963235294,0.00036102467555710287,13.084980169932047
182,0.10800254717469215,0.9997127757352942,0.00035582982974932464,13.155454345544179
183,0.10783540041131132,0.9997127757352942,0.0003506519029502432,13.227099923292796
184,0.10920051112771034,0.9998276654411765,0.00034549150281252633,13.298272037506104
185,0.11014766991138458,0.9993968290441176,0.00034034923493201,13.370123175779979
186,0.108663222149891,0.9997414981617647,0.0003352257027766298,13.44560230175654
187,0.1086734818185077,0.99951171875,0.00033012150761560087,13.518918104966481
188,0.10833715494064723,0.9995404411764706,0.0003250372484488559,13.593034676710765
189,0.10875511585789568,0.9994542738970589,0.0003199735219367508,13.667342440287273
190,0.10928805150529917,0.9996840533088235,0.0003149309223300429,13.739915132522583
191,0.10987301959710963,0.9994829963235294,0.000309910041400154,13.815879062811534
192,0.10772447485257597,0.9996553308823529,0.00030491146836972283,13.889269733428955
193,0.10756589296986074,0.9997127757352942,0.00029993578984345673,13.962348934014639
194,0.10769945843254819,0.9995691636029411,0.000294983589739292,14.033508054415385
195,0.1082918185959844,0.9997702205882353,0.0002900554492198677,14.104582782586416
196,0.10900062892366857,0.9996266084558824,0.00028515194662432405,14.17851523955663
197,0.10902314633131027,0.99951171875,0.0002802736574004319,14.249582676092784
198,0.10710190061260672,0.9997989430147058,0.00027542115403706064,14.319773443539937
199,0.1061822809278965,0.9999138327205882,0.0002705950059969948,14.392211425304414
200,0.10582578116480042,0.9997989430147058,0.000265795779650105,14.465362254778544
201,0.10642445920144811,0.9996840533088235,0.0002610240382068818,14.538357754548391
202,0.10649009706342921,0.99951171875,0.0002562803416523405,14.611377501487732
203,0.10774685179485995,0.9996840533088235,0.000251565246680304,14.683230022589365
204,0.1068986568819074,0.9997127757352942,0.000246879306628073,14.754402271906535
205,0.10730756687767365,0.9996553308823529,0.00024222307141148907,14.824745225906373
206,0.10592720131663715,0.9997127757352942,0.00023759708746039977,14.896785231431325
207,0.10811224777032347,0.9995404411764706,0.00023300189765453194,14.968490711847942
208,0.10686344762935358,0.9997414981617647,0.00022843804125978356,15.040016905466716
209,0.1070562857477104,0.9996840533088235,0.00022390605386493756,15.112153112888336
210,0.10616239204126246,0.9998563878676471,0.00021940646731880887,15.183096059163411
211,0.10664345104904736,0.9997702205882353,0.00021493980966782845,15.255908381938934
212,0.10622588238295387,0.9997414981617647,0.00021050660509407576,15.327842990557352
213,0.10640851298675817,0.9994542738970589,0.00020610737385376348,15.399123398462931
214,0.10608508109169848,0.9995691636029411,0.00020174263221618284,15.471530091762542
215,0.10477860929334865,0.9997414981617647,0.00019741289240311755,15.542664329210917
216,0.10545005999943789,0.9998563878676471,0.00019311866252873128,15.616084782282512
217,0.10535634352880366,0.9998276654411765,0.00018886044653993966,15.686891774336496
218,0.10722689944155075,0.99951171875,0.000184638744157269,15.759333527088165
219,0.1055438332259655,0.9998276654411765,0.00018045405081621214,15.831329075495402
220,0.1052999553434989,0.9998276654411765,0.00017630685760908622,15.903948553403218
221,0.1056151151218835,0.9997414981617647,0.00017219765122740216,15.97754364013672
222,0.10639433825717252,0.9998851102941176,0.00016812691390474788,16.048654659589133
223,0.1055699968162705,0.9997702205882353,0.00016409512336019698,16.120142682393393
224,0.10499926415436409,0.9997414981617647,0.00016010275274224624,16.192120818297067
225,0.10495794674052912,0.9997414981617647,0.00015615027057328847,16.2643381913503
226,0.10516737116610303,0.9993681066176471,0.00015223814069463077,16.335901621977488
227,0.10546572615995127,0.9998276654411765,0.00014836682221206,16.40685285727183
228,0.10323712163988281,0.9997989430147058,0.00014453676944196475,16.479069101810456
229,0.1044933701701024,0.9997414981617647,0.00014074843185801883,16.552755363782246
230,0.10478487808038206,0.9996553308823529,0.00013700225403843458,16.624226760864257
231,0.10447481603306882,0.9996266084558824,0.00013329867561378872,16.698309250672658
232,0.1039358572486569,0.99951171875,0.0001296381312154305,16.771839455763498
233,0.10434000807649949,0.9997127757352942,0.00012602105042447482,16.84307988087336
234,0.10454613562015926,0.9997702205882353,0.0001224478577213897,16.91360901594162
235,0.10338622747975237,0.9997127757352942,0.00011891897243618183,16.986975479125977
236,0.10585154045154066,0.99951171875,0.00011543480869918555,17.05855734348297
237,0.10490180442438406,0.9996553308823529,0.00011199577539246347,17.12978480656942
238,0.10358565147308742,0.9997127757352942,0.00010860227610182222,17.20209819873174
239,0.1043014633743202,0.9995404411764706,0.00010525470906944917,17.273554635047912
240,0.10362497563747798,0.9997127757352942,0.00010195346714717812,17.34506791830063
241,0.10409764441497185,0.9996266084558824,9.869893775038557e-05,17.41771283149719
242,0.10339981690049171,0.9997702205882353,9.549150281252633e-05,17.48900355497996
243,0.10353752050329657,0.9995978860294118,9.233153874031102e-05,17.56228586435318
244,0.10350746113587828,0.9997702205882353,8.921941636953435e-05,17.633075547218322
245,0.10424552025163875,0.9997414981617647,8.615550092155477e-05,17.704534355799357
246,0.10513608508250293,0.9995691636029411,8.31401519604349e-05,17.77648869752884
247,0.10414577867178355,0.9997414981617647,8.017372335074486e-05,17.84693398873011
248,0.10406363404848996,0.9997989430147058,7.725656321603413e-05,17.918714137872062
249,0.10480214151389458,0.9997414981617647,7.43890138979788e-05,17.99039331674576
250,0.10325544196016648,0.9997127757352942,7.157141191620536e-05,18.061488366127016
251,0.10470780160497217,0.9996266084558824,6.880408792879905e-05,18.13530313571294
252,0.10362874760347254,0.9997414981617647,6.60873666934993e-05,18.206617883841197
253,0.10418490977848277,0.9997127757352942,6.342156702958851e-05,18.277629590034486
254,0.10348232287694425,0.9995978860294118,6.080700178047677e-05,18.34860030412674
255,0.1032146861886277,0.9998851102941176,5.8243977776988585e-05,18.420072933038075
256,0.10377868440221338,0.9997702205882353,5.573279580135448e-05,18.49311503569285
257,0.1034292339840356,0.9994829963235294,5.3273750551913246e-05,18.56450088818868
258,0.10239834645215203,0.9998563878676471,5.086713060852788e-05,18.637098121643067
259,0.10339088716051158,0.9997702205882353,4.851321839871908e-05,18.707932988802593
260,0.10439881660482463,0.9996840533088235,4.621229016452155e-05,18.779468631744386
261,0.10238045081496239,0.9996840533088235,4.3964615930065124e-05,18.853322573502858
262,0.10325285638956462,0.9996266084558824,4.1770459469887e-05,18.924841197331748
263,0.1026992550229325,0.9997989430147058,3.963007827797621e-05,18.99567889769872
264,0.10363116706995402,0.9997414981617647,3.754372353755558e-05,19.06707394917806
265,0.10349566818160169,0.9995978860294118,3.551164009160429e-05,19.13748092651367
266,0.10227235538118026,0.9998851102941176,3.3534066414124486e-05,19.211423301696776
267,0.10350812533322502,0.9995691636029411,3.161123458215553e-05,19.282299772898355
268,0.10335693464559667,0.9994255514705882,2.9743370248538015e-05,19.3536297082901
269,0.10410998257644036,0.9995978860294118,2.7930692615433406e-05,19.42569484313329
270,0.10470947097329532,0.9998276654411765,2.617341440859883e-05,19.497426831722258
271,0.10372050413314034,0.9996553308823529,2.4471741852423235e-05,19.571223092079162
272,0.10240959222702418,0.9998851102941176,2.282587464572594e-05,19.643648370107016
273,0.10211605206131935,0.9998851102941176,2.12360059383212e-05,19.717093865076702
274,0.10333835267845322,0.9996266084558824,1.9702322308350672e-05,19.789578926563262
275,0.10328691847184125,0.9997414981617647,1.8225003740388545e-05,19.860480205217996
276,0.10230768778744866,0.9998563878676471,1.680422360431877e-05,19.935241866111756
277,0.10250131194205846,0.9998276654411765,1.544014863498977e-05,20.00697012344996
278,0.10369020612800822,0.9997989430147058,1.4132938912647276e-05,20.079999792575837
279,0.10383021042627447,0.9998276654411765,1.288274784414789e-05,20.153242282072704
280,0.10311457470935934,0.9996840533088235,1.1689722144956671e-05,20.224983990192413
281,0.10262368334566846,0.9998563878676471,1.055400182192906e-05,20.30086403687795
282,0.10307978203191477,0.9997702205882353,9.475720156880418e-06,20.37270485162735
283,0.10300455351962763,0.9996553308823529,8.45500369094504e-06,20.445287056763966
284,0.10202132362653227,0.9996840533088235,7.4919722097258055e-06,20.5175660610199
285,0.10269185506245669,0.9997702205882353,6.58673872923693e-06,20.59261832634608
286,0.10239362848155639,0.9998563878676471,5.739409482640901e-06,20.666822318236033
287,0.10209747228552313,0.9996840533088235,4.950083907781733e-06,20.738631085554758
288,0.10237696964074583,0.9996840533088235,4.218854635515301e-06,20.811308654149375
289,0.10325188825235647,0.9996840533088235,3.545807478838814e-06,20.88466996749242
290,0.10150490131448298,0.9997989430147058,2.9310214228202015e-06,20.95756812095642
291,0.10285292171380099,0.9995691636029411,2.3745686153290315e-06,21.03163722753525
292,0.10230620753239184,0.9996553308823529,1.8765143585693922e-06,21.104859030246736
293,0.10215720271362978,0.9997989430147058,1.4369171014165793e-06,21.175036386648813
294,0.10232905605260063,0.9997989430147058,1.0558284325578037e-06,21.2451646288236
295,0.10273203670102007,0.9996266084558824,7.332930744380905e-07,21.317207344373067
296,0.10317705067641594,0.9997414981617647,4.6934887801164396e-07,21.390511310100557
297,0.10259670895688675,0.9998276654411765,2.6402681830023365e-07,21.462659112612407
298,0.1025143348995377,0.9998851102941176,1.173509907579362e-07,21.5339537302653
299,0.10231024815755732,0.9996840533088235,2.933860844345215e-08,21.604953384399415
300,0.10390560087912223,0.99951171875,0.0,21.67637703418732
