epoch,loss,top1,lr,minutes
1,4.126364707946777,0.41374655330882354,0.00010294117647058823,0.08323372602462768
2,2.4334541734527138,0.6943072150735294,0.00020294117647058824,0.15188233852386473
3,1.7568603718982023,0.8581399356617647,0.00030294117647058824,0.2205822189648946
4,1.3634831204133875,0.9188304227941176,0.0004029411764705883,0.2877586285273234
5,1.0742545022683985,0.9465762867647058,0.0005029411764705883,0.3563908815383911
6,0.8664668447831098,0.9576056985294118,0.0006029411764705882,0.4267902175585429
7,0.7020265424952787,0.9686063878676471,0.0007029411764705881,0.4963961005210876
8,0.5860556399121004,0.9759306066176471,0.0008029411764705883,0.5641636927922566
9,0.4980022889726302,0.9847771139705882,0.0009029411764705882,0.6319253404935201
10,0.4346743743209278,0.98876953125,0.001,0.7003785848617554
11,0.39314649297910575,0.9910098805147058,0.0009999706613915565,0.7707031846046448
12,0.3551373253850376,0.9925321691176471,0.000999882649009242,0.8402764678001404
13,0.3310985100619933,0.9934225643382353,0.0009997359731816998,0.9101575016975403
14,0.3196219828198938,0.9929055606617647,0.0009995306511219884,0.9785998185475667
15,0.30208440738565784,0.9946863511029411,0.0009992667069255619,1.0450855930646261
16,0.2881433087236741,0.9952607996323529,0.0009989441715674422,1.1145544052124023
17,0.2780606343465693,0.9954331341911765,0.0009985630828985835,1.184440811475118
18,0.2709505698260139,0.9955767463235294,0.0009981234856414306,1.253272577126821
19,0.2631767598145148,0.9958065257352942,0.000997625431384671,1.3240331848462423
20,0.25532422784496756,0.9954618566176471,0.0009970689785771798,1.3928674777348837
21,0.25292589690755396,0.9954331341911765,0.0009964541925211613,1.4629055420557657
22,0.2398482885430841,0.9965245863970589,0.0009957811453644848,1.5324511051177978
23,0.2406279751483132,0.9956916360294118,0.0009950499160922184,1.6017220497131348
24,0.22919669309083154,0.9968692555147058,0.0009942605905173593,1.671677303314209
25,0.22952170976821115,0.99658203125,0.0009934132612707631,1.7418119072914124
26,0.22888637377935298,0.9960363051470589,0.0009925080277902742,1.8136619647343954
27,0.2268398487392594,0.9960363051470589,0.000991544996309055,1.884210960070292
28,0.2215139677419382,0.9961799172794118,0.0009905242798431196,1.9556618452072143
29,0.21609191289719412,0.9962660845588235,0.000989445998178071,2.02712006966273
30,0.21221965639030232,0.9969554227941176,0.0009883102778550433,2.097133727868398
31,0.20971190009047003,0.9970990349264706,0.0009871172521558522,2.169098941485087
32,0.20702772938153324,0.9972426470588235,0.0009858670610873527,2.2378136197725933
33,0.204996039323947,0.9970990349264706,0.0009845598513650103,2.307626406351725
34,0.20115090818966136,0.9972713694852942,0.0009831957763956813,2.377689707279205
35,0.20322035866625168,0.9974437040441176,0.0009817749962596114,2.4485479474067686
36,0.19597986997926936,0.9976734834558824,0.0009802976776916493,2.524988540013631
37,0.1960030206862618,0.9977022058823529,0.0009787639940616788,2.5966537475585936
38,0.19388982215348413,0.9975011488970589,0.000977174125354274,2.6700600266456602
39,0.190003262284924,0.9981330422794118,0.0009755282581475768,2.744191869099935
40,0.19009710979812286,0.99755859375,0.0009738265855914012,2.8200332800547283
41,0.18784236644997315,0.9972713694852942,0.0009720693073845667,2.894452702999115
42,0.18440549426219044,0.9981904871323529,0.000970256629751462,2.9646800716718036
43,0.18721563763478222,0.9976160386029411,0.0009683887654178445,3.0364314635594685
44,0.18515859763411915,0.9975011488970589,0.0009664659335858754,3.106941564877828
45,0.18026272251325495,0.9984202665441176,0.0009644883599083958,3.177893888950348
46,0.1796891772571732,0.9981043198529411,0.0009624562764624445,3.2503591060638426
47,0.1797917546594844,0.9978458180147058,0.0009603699217220239,3.3190197070439655
48,0.17565321746994467,0.9984489889705882,0.000958229540530113,3.389428385098775
49,0.17922878615996418,0.9978745404411765,0.000956035384069935,3.4593186100323994
50,0.17683624169405768,0.9982479319852942,0.0009537877098354786,3.5300041317939757
51,0.17339653872391758,0.9984202665441176,0.0009514867816012809,3.6014853795369466
52,0.17358344661838868,0.9979894301470589,0.0009491328693914722,3.6712799350420635
53,0.17623622627819285,0.9979032628676471,0.0009467262494480868,3.7411362290382386
54,0.17122824051800897,0.9981330422794118,0.0009442672041986457,3.810300342241923
55,0.16926934964516582,0.9983915441176471,0.0009417560222230115,3.880306601524353
56,0.17163828365943012,0.9977596507352942,0.0009391929982195233,3.952737315495809
57,0.17086900420048656,0.9978745404411765,0.0009365784329704115,4.0234328508377075
58,0.1665496734135291,0.9986213235294118,0.0009339126333065006,4.093559622764587
59,0.16772864364525852,0.9983053768382353,0.000931195912071201,4.1629840930302935
60,0.1664074843420702,0.9982192095588235,0.0009284285880837946,4.233691517512003
61,0.1674576839979957,0.9976447610294118,0.0009256109861020212,4.307061958312988
62,0.1670208915191538,0.9984489889705882,0.0009227434367839658,4.379626441001892
63,0.1658699665875996,0.9981904871323529,0.0009198262766492554,4.448167550563812
64,0.1641995924360612,0.9984489889705882,0.0009168598480395651,4.51812181075414
65,0.16339806993218028,0.9976734834558824,0.0009138444990784454,4.589898777008057
66,0.16428540515549042,0.9982766544117647,0.0009107805836304658,4.663264107704163
67,0.15788535247830784,0.9985638786764706,0.000907668461259689,4.732165503501892
68,0.15916318577878616,0.9983340992647058,0.0009045084971874737,4.802340002854665
69,0.1610085359391044,0.9983915441176471,0.0009013010622496143,4.875029718875885
70,0.16004307524246328,0.9982479319852942,0.0008980465328528219,4.944748369852702
71,0.16116465277531566,0.9979607077205882,0.0008947452909305509,5.017289419968923
72,0.1564188994028989,0.9986787683823529,0.0008913977238981779,5.088198256492615
73,0.15895076534327338,0.9983340992647058,0.0008880042246075365,5.159706425666809
74,0.1594687481136883,0.9981904871323529,0.0008845651913008145,5.230742768446604
75,0.1560583960484056,0.9983915441176471,0.0008810810275638182,5.3011431217193605
76,0.15622622256769853,0.9983053768382353,0.0008775521422786103,5.374011504650116
77,0.15514181291355805,0.99853515625,0.0008739789495755254,5.44534592628479
78,0.1499297434792799,0.9988798253676471,0.0008703618687845696,5.515897043546041
79,0.1546514704823494,0.9982479319852942,0.0008667013243862111,5.5863905310630795
80,0.15224546719999874,0.9987649356617647,0.0008629977459615654,5.657813362280527
81,0.15193632157409892,0.9987074908088235,0.0008592515681419813,5.730274514357249
82,0.15270558525534236,0.9985638786764706,0.0008554632305580354,5.802577443917593
83,0.15004410550874822,0.9985926011029411,0.00085163317778794,5.87226965824763
84,0.1501767438124208,0.9987074908088235,0.0008477618593053693,5.944758641719818
85,0.14937368824201472,0.9982766544117647,0.0008438497294267117,6.014919153849283
86,0.1512740456006106,0.9986213235294118,0.0008398972472577539,6.087671105066935
87,0.14986246473648968,0.9986500459558824,0.0008359048766398031,6.159892543156942
88,0.14743834032731898,0.9991670496323529,0.0008318730860952522,6.229748634497325
89,0.148648140623289,0.9986500459558824,0.000827802348772598,6.299372581640879
90,0.14928420370115952,0.9985638786764706,0.0008236931423909139,6.371728058656057
91,0.15128931052544536,0.9983915441176471,0.000819545949183788,6.444400227069854
92,0.1489128102274502,0.9986500459558824,0.0008153612558427309,6.5138484557469685
93,0.14861051431473563,0.9987649356617647,0.0008111395534600603,6.585228522618611
94,0.15008299271850026,0.9983053768382353,0.0008068813374712689,6.656208376089732
95,0.1454600626054932,0.9989947150735294,0.0008025871075968827,6.727338671684265
96,0.14758831876165726,0.9987362132352942,0.0007982573677838172,6.797887623310089
97,0.14462365297710195,0.9991670496323529,0.0007938926261462366,6.868791778882344
98,0.1457073548260857,0.9983915441176471,0.0007894933949059243,6.939722283681234
99,0.1426956096992773,0.9991957720588235,0.0007850601903321716,7.012769039471944
100,0.14414020803044825,0.9989085477941176,0.0007805935326811913,7.084136688709259
101,0.14257522628587835,0.9988223805147058,0.0007760939461350624,7.1582951784133915
102,0.14215698180829778,0.9989085477941176,0.0007715619587402164,7.229504179954529
103,0.1453772669329363,0.9981904871323529,0.000766998102345468,7.300677486260732
104,0.14406552341054468,0.9989659926470589,0.0007624029125396003,7.371916989485423
105,0.1433201072847142,0.9987074908088235,0.0007577769285885109,7.442371678352356
106,0.14209630690953312,0.9986787683823529,0.0007531206933719271,7.515383227666219
107,0.13842596464297352,0.9991670496323529,0.0007484347533196961,7.585894838968913
108,0.14160499152015238,0.9987649356617647,0.0007437196583476597,7.658641294638316
109,0.14353164241594427,0.9988223805147058,0.0007389759617931182,7.728078695138295
110,0.1396536682458485,0.9989085477941176,0.0007342042203498951,7.8003794630368555
111,0.1386156800915213,0.9991383272058824,0.0007294049940030055,7.872003889083862
112,0.13872906346531474,0.9989085477941176,0.0007245788459629396,7.942306649684906
113,0.13973436811391046,0.9985926011029411,0.0007197263425995681,8.013007124265036
114,0.14024097297121496,0.9986787683823529,0.0007148480533756759,8.082822235425313
115,0.1390378334942986,0.9990808823529411,0.0007099445507801323,8.154070397218069
116,0.1398994729799383,0.9987649356617647,0.000705016410260708,8.228144605954489
117,0.14060825065654867,0.9987649356617647,0.0007000642101565435,8.298492201169331
118,0.13829620051033356,0.9986500459558824,0.0006950885316302773,8.371291085084279
119,0.14001353983493411,0.9987649356617647,0.000690089958599846,8.441537539164225
120,0.13852043274570913,0.9990234375,0.0006850690776699572,8.514490246772766
121,0.13746416700236938,0.9990234375,0.0006800264780632495,8.586349300543468
122,0.13724265685852835,0.9989947150735294,0.0006749627515511443,8.65779849688212
123,0.139144410543582,0.9988511029411765,0.0006698784923843993,8.72856931289037
124,0.1375783085823059,0.9991096047794118,0.0006647742972233702,8.800645609696707
125,0.13921024036758087,0.9987074908088235,0.00065965076506799,8.872163033485412
126,0.13462899406166637,0.9993106617647058,0.0006545084971874737,8.945144371191661
127,0.13801462838754935,0.9986787683823529,0.0006493480970497568,9.016480724016825
128,0.13428011076415286,0.9993393841911765,0.0006441701702506753,9.088135409355164
129,0.13287219668135924,0.9992532169117647,0.0006389753244428972,9.159664368629455
130,0.136944189448567,0.9988223805147058,0.0006337641692646103,9.230014566580454
131,0.1362180801875451,0.9990521599264706,0.0006285373162679804,9.302161721388499
132,0.135935259215972,0.9987649356617647,0.0006232953788473809,9.373786934216817
133,0.13370085003621437,0.9989947150735294,0.0006180389721674102,9.443922134240468
134,0.134278174928006,0.9990234375,0.0006127687130906971,9.51453856229782
135,0.1304122356369215,0.9995404411764706,0.0006074852201055121,9.586486514409383
136,0.13219677043311737,0.9991957720588235,0.0006021891132531825,9.66066817442576
137,0.13351489450125134,0.9987649356617647,0.0005968810140553292,9.73069913784663
138,0.13557821205433676,0.9988223805147058,0.000591561545440928,9.80402459303538
139,0.13544344639076905,0.9984202665441176,0.0005862313316732063,9.875931851069133
140,0.1329282587941955,0.9990808823529411,0.0005808909982763825,9.947703607877095
141,0.13311238104806228,0.9991096047794118,0.0005755411719622584,10.021032118797303
142,0.13183144655297785,0.9993106617647058,0.0005701824805566722,10.093274688720703
143,0.1318481645601637,0.9993106617647058,0.0005648155529258194,10.166238995393117
144,0.1316451853250756,0.9991670496323529,0.0005594410189024533,10.237022654215496
145,0.13192565629587455,0.9992819393382353,0.0005540595092119709,10.30854043563207
146,0.133564802872784,0.9989372702205882,0.0005486716553983948,10.382847678661346
147,0.13550416467820897,0.9985064338235294,0.0005432780897502588,10.454159080982208
148,0.13000067411100164,0.9993393841911765,0.0005378794452264051,10.52612520456314
149,0.13105764459161198,0.9990521599264706,0.0005324763553817053,10.597511597474416
150,0.1319196162854924,0.9989372702205882,0.0005270694542927088,10.669224655628204
151,0.132273149840972,0.9988511029411765,0.0005216593764832311,10.741995735963185
152,0.13178921907263644,0.9991957720588235,0.0005162467568498903,10.81288237174352
153,0.1322538681766566,0.9989947150735294,0.0005108322305875987,10.88329602877299
154,0.1295078348587541,0.9991670496323529,0.0005054164331150199,10.955796225865681
155,0.13148242585799275,0.9988223805147058,0.0005,11.026395257314046
156,0.1324361218687366,0.9990808823529411,0.0004945835668849801,11.099570393562317
157,0.13050036745912888,0.9991383272058824,0.0004891677694124013,11.170761485894522
158,0.130032999550595,0.9992244944852942,0.0004837532431501098,11.241740147272745
159,0.12869573406436863,0.9992819393382353,0.00047834062351676893,11.314635713895163
160,0.13102092659648726,0.9987362132352942,0.00047293054570729125,11.3863152941068
161,0.13004007891697042,0.9991957720588235,0.0004675236446182947,11.459514705340068
162,0.12814106375855558,0.9994542738970589,0.00046212055477359496,11.532075730959574
163,0.12989272484008005,0.9987936580882353,0.0004567219102497413,11.604261593023937
164,0.1298277290428386,0.9990808823529411,0.0004513283446016052,11.675890024503072
165,0.12918326390140197,0.9989947150735294,0.0004459404907880292,11.747059281667074
166,0.12965557285967996,0.9990521599264706,0.0004405589810975468,11.819281772772472
167,0.12757232960532694,0.9991383272058824,0.00043518444707418076,11.890795548756918
168,0.12831446550348224,0.9990521599264706,0.00042981751944332785,11.961520365873973
169,0.12947945691206875,0.9989372702205882,0.00042445882803774173,12.034594547748565
170,0.12824375598746188,0.9992819393382353,0.00041910900172361764,12.106508541107178
171,0.12669006559778662,0.9992244944852942,0.0004137686683267938,12.178140497207641
172,0.1285754919928663,0.9991096047794118,0.0004084384545590719,12.250202226638795
173,0.1278741955757141,0.9992819393382353,0.00040311898594467085,12.322096252441407
174,0.12668412156841335,0.9993681066176471,0.00039781088674681754,12.393579343954721
175,0.12801549474106116,0.9991957720588235,0.0003925147798944881,12.464620860417684
176,0.12773669686387568,0.9991670496323529,0.00038723128690930304,12.538655583063761
177,0.12667198018992648,0.9989947150735294,0.00038196102783259007,12.609472465515136
178,0.12353996362756281,0.9995691636029411,0.00037670462115261914,12.680705352624257
179,0.1253777102512472,0.9991096047794118,0.00037146268373201965,12.753307529290517
180,0.1247156503445962,0.9991957720588235,0.0003662358307353897,12.824071315924327
181,0.12587796173551502,0.9993393841911765,0.00036102467555710287,12.89437957207362
182,0.12735869560171575,0.9988798253676471,0.00035582982974932464,12.964185869693756
183,0.12636941539890625,0.9992244944852942,0.0003506519029502432,13.035659257570902
184,0.12494853204664062,0.9993393841911765,0.00034549150281252633,13.10681571563085
185,0.12615204251864376,0.9989372702205882,0.00034034923493201,13.178315484523774
186,0.1250075877589338,0.9992819393382353,0.0003352257027766298,13.251535205046336
187,0.12627198656692223,0.9992244944852942,0.00033012150761560087,13.32256242831548
188,0.12345007763189428,0.9995404411764706,0.0003250372484488559,13.393698608875274
189,0.12502875003744574,0.9990234375,0.0003199735219367508,13.46466060479482
190,0.12594591475584926,0.9993106617647058,0.0003149309223300429,13.536170144875845
191,0.1249360573642394,0.9989659926470589,0.000309910041400154,13.6095405459404
192,0.12451563205789118,0.9993106617647058,0.00030491146836972283,13.679806983470916
193,0.12590854330097928,0.9988798253676471,0.00029993578984345673,13.751642314592997
194,0.12413816986715093,0.9991670496323529,0.000294983589739292,13.823937718073527
195,0.12296977683025248,0.9993681066176471,0.0002900554492198677,13.893783251444498
196,0.12316524259307805,0.9992532169117647,0.00028515194662432405,13.966968560218811
197,0.1243990780237843,0.9993106617647058,0.0002802736574004319,14.038790965080262
198,0.12424701561822611,0.9994542738970589,0.00027542115403706064,14.109458800156911
199,0.12220057012403712,0.9993968290441176,0.0002705950059969948,14.180837114651998
200,0.12271025601555319,0.9993393841911765,0.000265795779650105,14.251408445835114
201,0.12287771745639689,0.9993106617647058,0.0002610240382068818,14.324271897474924
202,0.1241692696862361,0.9992819393382353,0.0002562803416523405,14.395433648427327
203,0.12280403077602386,0.99951171875,0.000251565246680304,14.467403244972228
204,0.1217534428133684,0.9994829963235294,0.000246879306628073,14.5401198665301
205,0.12281390871195232,0.9994255514705882,0.00024222307141148907,14.611353635787964
206,0.12296188140616697,0.9991670496323529,0.00023759708746039977,14.68609961271286
207,0.12217085282592212,0.9994255514705882,0.00023300189765453194,14.75717089176178
208,0.1206129846327445,0.9995691636029411,0.00022843804125978356,14.827815715471903
209,0.12093443182461402,0.99951171875,0.00022390605386493756,14.89823016722997
210,0.12250746304497999,0.9993106617647058,0.00021940646731880887,14.969827036062876
211,0.12220070752150872,0.9992244944852942,0.00021493980966782845,15.042207479476929
212,0.12144547262612511,0.9995691636029411,0.00021050660509407576,15.113727617263795
213,0.12109687573769513,0.9995691636029411,0.00020610737385376348,15.184772038459778
214,0.12321323791847509,0.9991670496323529,0.00020174263221618284,15.255311373869578
215,0.12013820493045975,0.9994542738970589,0.00019741289240311755,15.326254351933796
216,0.12160595046246753,0.9995691636029411,0.00019311866252873128,15.398667633533478
217,0.12083073398646187,0.9993681066176471,0.00018886044653993966,15.469215563933055
218,0.12147037093253697,0.9993968290441176,0.000184638744157269,15.541916684309642
219,0.11962132900953293,0.9996840533088235,0.00018045405081621214,15.612521270910898
220,0.12104879451148651,0.9996266084558824,0.00017630685760908622,15.684334858258564
221,0.1209220879656427,0.9992819393382353,0.00017219765122740216,15.756409096717835
222,0.12072154419387088,0.9993681066176471,0.00016812691390474788,15.827246379852294
223,0.12109063105548129,0.9991096047794118,0.00016409512336019698,15.897404364744823
224,0.12099530613597702,0.9992532169117647,0.00016010275274224624,15.968720662593842
225,0.12030384317040443,0.9993968290441176,0.00015615027057328847,16.041054757436118
226,0.12036961382802795,0.9993393841911765,0.00015223814069463077,16.113192816575367
227,0.12156164120225345,0.9990234375,0.00014836682221206,16.184868228435516
228,0.12010349771555733,0.99951171875,0.00014453676944196475,16.256097718079886
229,0.1204084872322924,0.9992819393382353,0.00014074843185801883,16.327654639879864
230,0.12070645786383573,0.9992819393382353,0.00013700225403843458,16.400421492258708
231,0.11955881053033997,0.9995404411764706,0.00013329867561378872,16.472445785999298
232,0.11962623872301158,0.99951171875,0.0001296381312154305,16.543788639704385
233,0.12230883538722992,0.9991383272058824,0.00012602105042447482,16.61390113035838
234,0.12075221078360782,0.9993681066176471,0.0001224478577213897,16.68483024040858
235,0.11845644694917343,0.9996553308823529,0.00011891897243618183,16.754660578568778
236,0.11934509369380333,0.9994255514705882,0.00011543480869918555,16.826674461364746
237,0.12041755743763026,0.9994542738970589,0.00011199577539246347,16.898609709739684
238,0.11982936171047828,0.9994542738970589,0.00010860227610182222,16.96825644572576
239,0.11932163707473699,0.9994542738970589,0.00010525470906944917,17.04105598926544
240,0.12145750706686693,0.9990808823529411,0.00010195346714717812,17.11246528228124
241,0.1185787105384995,0.9994542738970589,9.869893775038557e-05,17.186436525980632
242,0.1195427302051993,0.9994542738970589,9.549150281252633e-05,17.257068566481273
243,0.11789878282476873,0.9994829963235294,9.233153874031102e-05,17.327925924460093
244,0.11883329731576583,0.9994542738970589,8.921941636953435e-05,17.39836562871933
245,0.11789966352722224,0.9993968290441176,8.615550092155477e-05,17.4698832710584
246,0.11823342433747124,0.9994255514705882,8.31401519604349e-05,17.54370724360148
247,0.11870910556000822,0.9993393841911765,8.017372335074486e-05,17.615168170134226
248,0.11783166952869471,0.9995691636029411,7.725656321603413e-05,17.68627802928289
249,0.11807732130674754,0.9995404411764706,7.43890138979788e-05,17.75788635412852
250,0.11818869433858815,0.9991670496323529,7.157141191620536e-05,17.8290700117747
251,0.11900368617737994,0.9993681066176471,6.880408792879905e-05,17.901482689380646
252,0.11829827506752576,0.9995978860294118,6.60873666934993e-05,17.972994538148246
253,0.11971649900078773,0.9990521599264706,6.342156702958851e-05,18.045456218719483
254,0.1180652472026208,0.9994542738970589,6.080700178047677e-05,18.117024779319763
255,0.11822514170232941,0.9994542738970589,5.8243977776988585e-05,18.19090826511383
256,0.11653884785140262,0.9994542738970589,5.573279580135448e-05,18.264187486966453
257,0.11777305449633037,0.9993968290441176,5.3273750551913246e-05,18.336165471871695
258,0.11816106035428889,0.99951171875,5.086713060852788e-05,18.406690740585326
259,0.11881167178644854,0.9993968290441176,4.851321839871908e-05,18.478285058339438
260,0.11735447057906319,0.9996840533088235,4.621229016452155e-05,18.550190393129984
261,0.11785198485150057,0.9994829963235294,4.3964615930065124e-05,18.62355689207713
262,0.1170312779791215,0.9994542738970589,4.1770459469887e-05,18.695471481482187
263,0.11730718963286456,0.9994255514705882,3.963007827797621e-05,18.766225524743398
264,0.11872068661100724,0.9990234375,3.754372353755558e-05,18.837978223959606
265,0.11776571918059797,0.9996266084558824,3.551164009160429e-05,18.910371315479278
266,0.11847587477634935,0.9993681066176471,3.3534066414124486e-05,18.983289110660554
267,0.11899545744938009,0.9993106617647058,3.161123458215553e-05,19.05345331033071
268,0.11623579767696998,0.9995691636029411,2.9743370248538015e-05,19.12485772371292
269,0.11815864242175046,0.9994255514705882,2.7930692615433406e-05,19.19770651658376
270,0.11776620303006734,0.9994255514705882,2.617341440859883e-05,19.269152466456095
271,0.11744759253719274,0.99951171875,2.4471741852423235e-05,19.340823558966317
272,0.11908229024094694,0.9994829963235294,2.282587464572594e-05,19.4107413093249
273,0.11686394319814794,0.9993393841911765,2.12360059383212e-05,19.48185072739919
274,0.11868942835751702,0.9994255514705882,1.9702322308350672e-05,19.55281614859899
275,0.11798510744291194,0.9995404411764706,1.8225003740388545e-05,19.624129498004912
276,0.11960193712045164,0.9993106617647058,1.680422360431877e-05,19.69572046995163
277,0.11839775061782669,0.9994255514705882,1.544014863498977e-05,19.76550475358963
278,0.11733040082104065,0.9994542738970589,1.4132938912647276e-05,19.835903294881184
279,0.11775434762239456,0.9994542738970589,1.288274784414789e-05,19.907705426216125
280,0.11791479390333681,0.99951171875,1.1689722144956671e-05,19.980125284194948
281,0.11767745916457738,0.9995691636029411,1.055400182192906e-05,20.052340145905813
282,0.11824292667648371,0.9994829963235294,9.475720156880418e-06,20.12298921744029
283,0.11864199445528142,0.9994829963235294,8.45500369094504e-06,20.194824345906575
284,0.11879038657335673,0.9993681066176471,7.4919722097258055e-06,20.264480511347454
285,0.11541664753766621,0.9996840533088235,6.58673872923693e-06,20.335497856140137
286,0.11835244297981262,0.9992532169117647,5.739409482640901e-06,20.409281559785207
287,0.1182582796934773,0.9992532169117647,4.950083907781733e-06,20.480160649617513
288,0.11744731007253423,0.9994542738970589,4.218854635515301e-06,20.551305695374808
289,0.11636032755760585,0.9994829963235294,3.545807478838814e-06,20.621588655312856
290,0.11726102342500407,0.9993968290441176,2.9310214228202015e-06,20.69412359793981
291,0.11754732622819788,0.9993681066176471,2.3745686153290315e-06,20.765275382995604
292,0.11821836408446817,0.9995691636029411,1.8765143585693922e-06,20.835893885294595
293,0.1177777490195106,0.99951171875,1.4369171014165793e-06,20.907507081826527
294,0.11707519411164172,0.9993681066176471,1.0558284325578037e-06,20.978471982479096
295,0.11701669763116275,0.9995978860294118,7.332930744380905e-07,21.050255306561787
296,0.11754464489572189,0.99951171875,4.6934887801164396e-07,21.122924741109212
297,0.11663342858938609,0.9997414981617647,2.6402681830023365e-07,21.193933296203614
298,0.11721493435256622,0.9993968290441176,1.173509907579362e-07,21.263534899552663
299,0.11561725332456477,0.9996266084558824,2.933860844345215e-08,21.33446643749873
300,0.11821809279568055,0.9993968290441176,0.0,21.405445245901742
