epoch,loss,top1,lr,minutes
1,3.60648951810949,0.5350126378676471,0.00010294117647058823,0.08935769399007161
2,2.237817704677582,0.7477596507352942,0.00020294117647058824,0.15776883363723754
3,1.5788753733915442,0.8830422794117647,0.00030294117647058824,0.22723640203475953
4,1.1828060413108152,0.9338235294117647,0.0004029411764705883,0.2975401242574056
5,0.9311390466549817,0.9548196231617647,0.0005029411764705883,0.36621025800704954
6,0.7357054230044869,0.9679170496323529,0.0006029411764705882,0.4370504101117452
7,0.5883660982636845,0.9786305147058824,0.0007029411764705881,0.507024614016215
8,0.5012829224852955,0.9831973805147058,0.0008029411764705883,0.5769258817036946
9,0.41940294469104095,0.9910386029411765,0.0009029411764705882,0.6473052541414896
10,0.3640328181140563,0.9939108455882353,0.001,0.7167500019073486
11,0.3182303274379057,0.9963809742647058,0.0009999706613915565,0.7894266406695049
12,0.2887839411987978,0.9971277573529411,0.000999882649009242,0.8596804857254028
13,0.26926155213047476,0.9972713694852942,0.0009997359731816998,0.9288690527280171
14,0.2526364186230828,0.9979894301470589,0.0009995306511219884,0.9994206110636393
15,0.2404480046209167,0.9978170955882353,0.0009992667069255619,1.0695321162541707
16,0.2307039218790391,0.9978458180147058,0.0009989441715674422,1.1408547759056091
17,0.2246167655376827,0.9979319852941176,0.0009985630828985835,1.2112231175104777
18,0.21948881315834382,0.9977883731617647,0.0009981234856414306,1.2816309054692587
19,0.20910757035017014,0.9986500459558824,0.000997625431384671,1.3513182282447815
20,0.20687158142819123,0.9984489889705882,0.0009970689785771798,1.4223495165506999
21,0.2018727143021191,0.9982766544117647,0.0009964541925211613,1.493210240205129
22,0.194548223825062,0.9984489889705882,0.0009957811453644848,1.5625051498413085
23,0.18877023852923336,0.9988511029411765,0.0009950499160922184,1.6327691833178202
24,0.18616787125082576,0.9988223805147058,0.0009942605905173593,1.7006091396013896
25,0.18155145951930216,0.9987649356617647,0.0009934132612707631,1.7708134253819783
26,0.18024513213073506,0.9990234375,0.0009925080277902742,1.8426563620567322
27,0.17483012422042735,0.9993968290441176,0.000991544996309055,1.9118879318237305
28,0.17158478936728308,0.9992819393382353,0.0009905242798431196,1.981627599398295
29,0.17049487680196762,0.9991957720588235,0.000989445998178071,2.0522903641064962
30,0.16862712800502777,0.9989659926470589,0.0009883102778550433,2.1232364654541014
31,0.16447962952010772,0.9992532169117647,0.0009871172521558522,2.19669158856074
32,0.1628248244524002,0.9991383272058824,0.0009858670610873527,2.2681435982386273
33,0.16171349190613804,0.9992819393382353,0.0009845598513650103,2.3373417139053343
34,0.1594217879807248,0.9989659926470589,0.0009831957763956813,2.4064096450805663
35,0.15707648238715002,0.9994542738970589,0.0009817749962596114,2.4768391013145448
36,0.1568882206783575,0.9990808823529411,0.0009802976776916493,2.547939678033193
37,0.15658513544236913,0.9991957720588235,0.0009787639940616788,2.6178616484006247
38,0.1532118386205505,0.9992244944852942,0.000977174125354274,2.6871591289838155
39,0.1517903563730857,0.9992819393382353,0.0009755282581475768,2.7577034711837767
40,0.1485104271594216,0.9993106617647058,0.0009738265855914012,2.8272472421328225
41,0.14849784488187118,0.9991670496323529,0.0009720693073845667,2.899768888950348
42,0.14640990381731706,0.9992819393382353,0.000970256629751462,2.9706298152605695
43,0.14463936406023362,0.99951171875,0.0009683887654178445,3.0403693596522015
44,0.14522040416212642,0.9996266084558824,0.0009664659335858754,3.1103383978207906
45,0.14243563922012553,0.9993393841911765,0.0009644883599083958,3.1814916372299193
46,0.14054978463579626,0.9993968290441176,0.0009624562764624445,3.2545183022816975
47,0.14123628157026627,0.9996266084558824,0.0009603699217220239,3.324758227666219
48,0.13981437288662968,0.9996553308823529,0.000958229540530113,3.394462211926778
49,0.13822843222057118,0.9996840533088235,0.000956035384069935,3.4645957668622334
50,0.1378258558757165,0.9993681066176471,0.0009537877098354786,3.5349202036857603
51,0.13862954912816777,0.9997702205882353,0.0009514867816012809,3.6084500908851624
52,0.13701409276793985,0.99951171875,0.0009491328693914722,3.6791476647059125
53,0.13520420386510737,0.9994829963235294,0.0009467262494480868,3.7495789845784504
54,0.13406833874828675,0.99951171875,0.0009442672041986457,3.820952308177948
55,0.13239199449034297,0.9997702205882353,0.0009417560222230115,3.8896789868672688
56,0.13390033385332892,0.9996553308823529,0.0009391929982195233,3.9619118849436443
57,0.13270460332141204,0.9997414981617647,0.0009365784329704115,4.031657902399699
58,0.13242989515557008,0.9993393841911765,0.0009339126333065006,4.101555792490641
59,0.1307439911453163,0.9997702205882353,0.000931195912071201,4.170992016792297
60,0.12981204469414317,0.9999138327205882,0.0009284285880837946,4.240784804026286
61,0.1296329454464071,0.9998276654411765,0.0009256109861020212,4.311394043763479
62,0.12839080218006582,0.9995404411764706,0.0009227434367839658,4.381391342480978
63,0.1285629726069815,0.9996553308823529,0.0009198262766492554,4.451597662766774
64,0.12937493929091623,0.9997127757352942,0.0009168598480395651,4.521305910746256
65,0.1287253115545301,0.9995978860294118,0.0009138444990784454,4.592583847045899
66,0.12771235757014332,0.9997127757352942,0.0009107805836304658,4.665506402651469
67,0.12809600352364428,0.9995404411764706,0.000907668461259689,4.735241468747457
68,0.12732187088798075,0.9997127757352942,0.0009045084971874737,4.806054806709289
69,0.1256840614711537,0.9997989430147058,0.0009013010622496143,4.880560088157654
70,0.1265165054184549,0.9993393841911765,0.0008980465328528219,4.9531282107035315
71,0.12531708158990917,0.9997414981617647,0.0008947452909305509,5.025616768995921
72,0.12424625522073578,0.9996840533088235,0.0008913977238981779,5.09059860308965
73,0.12403995368410559,0.9997702205882353,0.0008880042246075365,5.1584281126658125
74,0.12270153401529088,0.9997414981617647,0.0008845651913008145,5.229988702138265
75,0.12324212622993133,0.9998563878676471,0.0008810810275638182,5.300741974512736
76,0.1220755732673056,0.9997414981617647,0.0008775521422786103,5.374567011992137
77,0.12194601534044042,0.9997702205882353,0.0008739789495755254,5.444231760501862
78,0.12284024629522772,0.9996840533088235,0.0008703618687845696,5.515103018283844
79,0.12325649927644168,0.9997414981617647,0.0008667013243862111,5.5853095610936485
80,0.12232048327431959,0.9998276654411765,0.0008629977459615654,5.655612011750539
81,0.1211040079155389,0.9996840533088235,0.0008592515681419813,5.728421227137248
82,0.11981558712089763,0.9995691636029411,0.0008554632305580354,5.798674420515696
83,0.11910140974556699,0.9997989430147058,0.00085163317778794,5.869593413670858
84,0.12035183915320564,0.9999425551470589,0.0008477618593053693,5.939207804203034
85,0.1210269511622541,0.9999138327205882,0.0008438497294267117,6.011177233854929
86,0.12023040630361613,0.9995404411764706,0.0008398972472577539,6.082424755891164
87,0.11871559983667206,0.9997414981617647,0.0008359048766398031,6.154126767317454
88,0.11860218227786176,0.9999138327205882,0.0008318730860952522,6.225249429543813
89,0.11771415743757696,0.9997989430147058,0.000827802348772598,6.294746069113414
90,0.12028798723922056,0.99951171875,0.0008236931423909139,6.3647058486938475
91,0.1184292069691069,0.9993681066176471,0.000819545949183788,6.4379048347473145
92,0.11676812522551593,0.9999138327205882,0.0008153612558427309,6.507369633515676
93,0.11594962328672409,0.9999138327205882,0.0008111395534600603,6.5776012698809305
94,0.11691867954590741,0.9997414981617647,0.0008068813374712689,6.6480344414711
95,0.11637190006235067,0.9997127757352942,0.0008025871075968827,6.718638710180918
96,0.11728370474541888,0.9997702205882353,0.0007982573677838172,6.791058949629465
97,0.11575180094908266,0.9998851102941176,0.0007938926261462366,6.862300900618235
98,0.11542001761057798,0.9997989430147058,0.0007894933949059243,6.931700007120768
99,0.11497126344372244,0.9997989430147058,0.0007850601903321716,7.00154128074646
100,0.11512745566227857,0.9997702205882353,0.0007805935326811913,7.0715159694353735
101,0.11460550786817775,0.9998851102941176,0.0007760939461350624,7.144099104404449
102,0.11457005778656286,0.9998851102941176,0.0007715619587402164,7.216105377674102
103,0.11599834789248074,0.9997989430147058,0.000766998102345468,7.2865046183268225
104,0.1147284621701521,0.9998563878676471,0.0007624029125396003,7.357075238227845
105,0.11521836216835414,0.9997414981617647,0.0007577769285885109,7.427058410644531
106,0.11506003842634313,0.9996266084558824,0.0007531206933719271,7.4999544223149615
107,0.11382128013407483,0.9998276654411765,0.0007484347533196961,7.568621663252513
108,0.11408541680258863,0.9997414981617647,0.0007437196583476597,7.640542332331339
109,0.11281596978797633,0.9999138327205882,0.0007389759617931182,7.711302510897318
110,0.11375220273347462,0.9997702205882353,0.0007342042203498951,7.78188503185908
111,0.1129161619088229,0.9997127757352942,0.0007294049940030055,7.855789601802826
112,0.11354651674628258,0.9997414981617647,0.0007245788459629396,7.925238227844238
113,0.11207731769365423,0.9999712775735294,0.0007197263425995681,7.9942562262217205
114,0.11234519148574156,0.9997702205882353,0.0007148480533756759,8.063968988259633
115,0.11203846401151489,0.9997989430147058,0.0007099445507801323,8.135124341646831
116,0.11112768509808708,1.0,0.000705016410260708,8.206367441018422
117,0.11140656909521889,0.9997414981617647,0.0007000642101565435,8.277456577618917
118,0.11129496356143671,0.9997414981617647,0.0006950885316302773,8.348221166928608
119,0.11118472696227186,0.9998276654411765,0.000690089958599846,8.418857316176096
120,0.11099052560680053,0.9998276654411765,0.0006850690776699572,8.488544078667958
121,0.11161809962461977,0.9997989430147058,0.0006800264780632495,8.561139130592347
122,0.11066628620028496,0.9998851102941176,0.0006749627515511443,8.631624190012614
123,0.11049493928165997,0.9999425551470589,0.0006698784923843993,8.702346249421437
124,0.11046597076689496,0.9997414981617647,0.0006647742972233702,8.77254095474879
125,0.11011941205052768,0.9997414981617647,0.00065965076506799,8.842783053716024
126,0.10928838524748297,0.9999138327205882,0.0006545084971874737,8.914102590084076
127,0.11082035850952654,0.9995978860294118,0.0006493480970497568,8.985294528802235
128,0.10993056415634997,0.9997989430147058,0.0006441701702506753,9.054619506994884
129,0.10915294201935039,0.9997989430147058,0.0006389753244428972,9.125322568416596
130,0.1096921155557913,0.9998851102941176,0.0006337641692646103,9.196054255962371
131,0.10843021641759311,0.9998276654411765,0.0006285373162679804,9.26817079782486
132,0.11024891869986758,0.9995978860294118,0.0006232953788473809,9.339788516362509
133,0.10869792213334757,0.9999138327205882,0.0006180389721674102,9.410184303919474
134,0.10788943158353076,0.9999712775735294,0.0006127687130906971,9.480413230260213
135,0.10858450347886366,1.0,0.0006074852201055121,9.552266256014507
136,0.10856891226242571,0.9997414981617647,0.0006021891132531825,9.624025396505992
137,0.1066997502656544,1.0,0.0005968810140553292,9.694286926587422
138,0.1078112186754451,0.9998851102941176,0.000591561545440928,9.765212082862854
139,0.10702307390816071,0.9999712775735294,0.0005862313316732063,9.83550721804301
140,0.10714531383093666,0.9997127757352942,0.0005808909982763825,9.906844135125478
141,0.10693031834328875,0.9999425551470589,0.0005755411719622584,9.979474119345348
142,0.10764114142340772,0.9997989430147058,0.0005701824805566722,10.050155786673228
143,0.10548666798893143,0.9998276654411765,0.0005648155529258194,10.120676199595133
144,0.10648663933662807,0.9998851102941176,0.0005594410189024533,10.192675642172496
145,0.10734516053515322,0.9996840533088235,0.0005540595092119709,10.261912155151368
146,0.10641226676457069,0.9997702205882353,0.0005486716553983948,10.335840332508088
147,0.10626493197153597,0.9997127757352942,0.0005432780897502588,10.406046001116435
148,0.10678519790663439,0.9997127757352942,0.0005378794452264051,10.476448281606038
149,0.10547349163714577,0.9999712775735294,0.0005324763553817053,10.547921133041381
150,0.10558045786969802,0.9997414981617647,0.0005270694542927088,10.614550761381786
151,0.10618743848274736,0.9997702205882353,0.0005216593764832311,10.68695913553238
152,0.1062206584302818,0.9999138327205882,0.0005162467568498903,10.756069338321685
153,0.10509421062820098,0.9998276654411765,0.0005108322305875987,10.828368333975474
154,0.10499245892552768,0.9997702205882353,0.0005054164331150199,10.900094111760458
155,0.10465654928018064,1.0,0.0005,10.972943905989329
156,0.10592609928811297,0.9997989430147058,0.0004945835668849801,11.046247120698293
157,0.10417156381642118,0.9999138327205882,0.0004891677694124013,11.118275582790375
158,0.10650385171175003,0.9997989430147058,0.0004837532431501098,11.189563604195913
159,0.10501371477456654,0.9998563878676471,0.00047834062351676893,11.260293436050414
160,0.10467640704968396,0.9999138327205882,0.00047293054570729125,11.33181409438451
161,0.10471054298036239,0.9998276654411765,0.0004675236446182947,11.404387513796488
162,0.10405006763689659,0.9998563878676471,0.00046212055477359496,11.475950868924459
163,0.10518995891599094,0.9998563878676471,0.0004567219102497413,11.54764453570048
164,0.10395589295555563,0.9998851102941176,0.0004513283446016052,11.619796538352967
165,0.1034642120494562,0.9999425551470589,0.0004459404907880292,11.69166359504064
166,0.1044068005593384,0.9997414981617647,0.0004405589810975468,11.765476667881012
167,0.10485675010611029,1.0,0.00043518444707418076,11.836358737945556
168,0.10305108261459014,0.9998563878676471,0.00042981751944332785,11.907153276602427
169,0.10354055771056343,0.9998563878676471,0.00042445882803774173,11.978655318419138
170,0.1030652135172311,0.9999425551470589,0.00041910900172361764,12.049118387699128
171,0.10338658466935158,1.0,0.0004137686683267938,12.121909590562185
172,0.10273382746998001,0.9997702205882353,0.0004084384545590719,12.193085984388988
173,0.10296320980962585,0.9997127757352942,0.00040311898594467085,12.26408139069875
174,0.10350092763409895,0.9998851102941176,0.00039781088674681754,12.335435930887858
175,0.10287717664066483,0.9999425551470589,0.0003925147798944881,12.406718627611797
176,0.10268869842676555,0.9999425551470589,0.00038723128690930304,12.479442457358042
177,0.10301986095659874,0.9999138327205882,0.00038196102783259007,12.551121584574382
178,0.10213644298560479,0.9999712775735294,0.00037670462115261914,12.621309824784596
179,0.10216475979370229,0.9997414981617647,0.00037146268373201965,12.691983616352081
180,0.10227175122674774,0.9997989430147058,0.0003662358307353897,12.76227377653122
181,0.10197210728245623,0.9999138327205882,0.00036102467555710287,12.836162753899892
182,0.10275424381389338,0.9998276654411765,0.00035582982974932464,12.906911901632945
183,0.10221876466975492,1.0,0.0003506519029502432,12.978028364976247
184,0.1025067480171428,0.9996840533088235,0.00034549150281252633,13.048514544963837
185,0.10216291862375596,0.9999138327205882,0.00034034923493201,13.11982057094574
186,0.10182209860752611,0.9997989430147058,0.0003352257027766298,13.193427129586537
187,0.10206271949059822,0.9999138327205882,0.00033012150761560087,13.263900132973989
188,0.10182327316964374,0.9997127757352942,0.0003250372484488559,13.333013486862182
189,0.10031061290818102,0.9999712775735294,0.0003199735219367508,13.401895121733348
190,0.1001708733246607,1.0,0.0003149309223300429,13.47338502407074
191,0.10161410951439072,0.9999712775735294,0.000309910041400154,13.547759620348613
192,0.10143866762518883,0.9999138327205882,0.00030491146836972283,13.620257111390432
193,0.10021559127113398,0.9999712775735294,0.00029993578984345673,13.691199640432993
194,0.1008223435458015,0.9999425551470589,0.000294983589739292,13.76368026336034
195,0.10100608647746198,0.9997127757352942,0.0002900554492198677,13.834723222255707
196,0.10077555302311392,0.9998851102941176,0.00028515194662432405,13.909711484114329
197,0.10144073713351698,0.9999138327205882,0.0002802736574004319,13.98205231030782
198,0.101972847519552,0.9997989430147058,0.00027542115403706064,14.054086613655091
199,0.09988273592556224,0.9999425551470589,0.0002705950059969948,14.125975898901622
200,0.10063271531287361,0.9998851102941176,0.000265795779650105,14.198245302836101
201,0.10081447397961336,0.9997414981617647,0.0002610240382068818,14.269947584470113
202,0.10038628560655258,0.9998276654411765,0.0002562803416523405,14.341488985220591
203,0.09959505936678718,0.9999712775735294,0.000251565246680304,14.410005251566568
204,0.09961383811691228,0.9999712775735294,0.000246879306628073,14.478272811571758
205,0.09915813584538068,0.9999712775735294,0.00024222307141148907,14.55060199101766
206,0.09953959286212921,0.9998563878676471,0.00023759708746039977,14.622520927588145
207,0.09937970252598033,0.9999138327205882,0.00023300189765453194,14.6926700592041
208,0.1005813928649706,0.9998851102941176,0.00022843804125978356,14.762885308265686
209,0.099899772554636,0.9998851102941176,0.00022390605386493756,14.832970643043518
210,0.10013680861276739,0.9998563878676471,0.00021940646731880887,14.90245036681493
211,0.0996217775870772,0.9999425551470589,0.00021493980966782845,14.973737947146098
212,0.09860561634687816,1.0,0.00021050660509407576,15.043991208076477
213,0.09957502059200231,0.9999425551470589,0.00020610737385376348,15.113796226183574
214,0.09903752255965681,0.9999712775735294,0.00020174263221618284,15.184091484546661
215,0.09858677930691663,0.9999425551470589,0.00019741289240311755,15.253634063402812
216,0.09967184066772461,0.9998276654411765,0.00019311866252873128,15.325596519311269
217,0.09908541533000328,0.9998276654411765,0.00018886044653993966,15.394926492373148
218,0.09913737129639177,1.0,0.000184638744157269,15.46452998717626
219,0.09794699510230738,0.9999138327205882,0.00018045405081621214,15.535210700829824
220,0.09875385419410818,0.9997989430147058,0.00017630685760908622,15.605838946501414
221,0.09914141038761419,0.9998563878676471,0.00017219765122740216,15.677581365903219
222,0.09834764174678746,0.9998851102941176,0.00016812691390474788,15.74880569378535
223,0.09864006235319026,1.0,0.00016409512336019698,15.818200568358103
224,0.09819656588575419,0.9998851102941176,0.00016010275274224624,15.888083112239837
225,0.09830542785279892,0.9999712775735294,0.00015615027057328847,15.95898516178131
226,0.09832661883795962,0.9998563878676471,0.00015223814069463077,16.03045027256012
227,0.09887905966709643,0.9999425551470589,0.00014836682221206,16.10053026676178
228,0.09775945916771889,0.9998563878676471,0.00014453676944196475,16.17151919603348
229,0.09785246016348109,0.9998851102941176,0.00014074843185801883,16.24093555212021
230,0.09823716497596573,0.9998851102941176,0.00013700225403843458,16.312104495366416
231,0.09847315510406214,0.9999138327205882,0.00013329867561378872,16.383786074320476
232,0.09759504041251015,0.9999425551470589,0.0001296381312154305,16.4532080133756
233,0.0975401182385052,0.9998851102941176,0.00012602105042447482,16.522612988948822
234,0.09774723999640521,0.9998851102941176,0.0001224478577213897,16.59247498114904
235,0.09793206808321617,0.9999712775735294,0.00011891897243618183,16.664751664797464
236,0.09823752545258578,0.9997127757352942,0.00011543480869918555,16.737239253520965
237,0.09700256651815246,0.9998851102941176,0.00011199577539246347,16.80619585911433
238,0.09801158922560074,0.9998851102941176,0.00010860227610182222,16.875418170293173
239,0.09772881580626264,0.9999712775735294,0.00010525470906944917,16.944249363740287
240,0.09815877785577494,0.9999425551470589,0.00010195346714717812,17.013523757457733
241,0.09797924669349894,0.9997702205882353,9.869893775038557e-05,17.08616553147634
242,0.09806653966798502,0.9999138327205882,9.549150281252633e-05,17.15642741918564
243,0.09747747660559766,0.9997702205882353,9.233153874031102e-05,17.226800378163656
244,0.09694315799895455,0.9999138327205882,8.921941636953435e-05,17.297036147117616
245,0.09679949393167216,0.9999712775735294,8.615550092155477e-05,17.3670690258344
246,0.0973765637506457,0.9998851102941176,8.31401519604349e-05,17.439560957749684
247,0.09760999832959737,0.9998563878676471,8.017372335074486e-05,17.51047935883204
248,0.09704212296534986,0.9999138327205882,7.725656321603413e-05,17.580331285794575
249,0.09672784060239792,1.0,7.43890138979788e-05,17.650994126001994
250,0.09743406470207606,0.9998851102941176,7.157141191620536e-05,17.719981424013774
251,0.09703120633083231,0.9999425551470589,6.880408792879905e-05,17.79062868754069
252,0.09755251118365456,0.9998563878676471,6.60873666934993e-05,17.860109893480935
253,0.09705284785698443,0.9998276654411765,6.342156702958851e-05,17.92871549924215
254,0.0970925311831867,0.9998851102941176,6.080700178047677e-05,17.999619710445405
255,0.09641530036049731,0.9999138327205882,5.8243977776988585e-05,18.068079566955568
256,0.09680210908546168,0.9999138327205882,5.573279580135448e-05,18.139768024285633
257,0.09598206465735155,0.9998276654411765,5.3273750551913246e-05,18.209432951609294
258,0.09653762793716263,0.9999425551470589,5.086713060852788e-05,18.278826789061227
259,0.09711317389326937,0.9998563878676471,4.851321839871908e-05,18.34863080183665
260,0.0982283998061629,0.9998563878676471,4.621229016452155e-05,18.418353601296744
261,0.0963919704013011,1.0,4.3964615930065124e-05,18.489707601070403
262,0.09635042925091351,0.9998563878676471,4.1770459469887e-05,18.55863183339437
263,0.09636338361922432,1.0,3.963007827797621e-05,18.628455074628196
264,0.0963427029988345,0.9999425551470589,3.754372353755558e-05,18.697141138712563
265,0.0969033477937474,0.9998276654411765,3.551164009160429e-05,18.768482987085978
266,0.09662168407264878,0.9998276654411765,3.3534066414124486e-05,18.8399275859197
267,0.09613729925716624,0.9999712775735294,3.161123458215553e-05,18.910654707749686
268,0.09692184473661815,0.9998563878676471,2.9743370248538015e-05,18.981339077154797
269,0.09672287807745092,0.9997414981617647,2.7930692615433406e-05,19.050402621428173
270,0.09652289507143638,0.9998563878676471,2.617341440859883e-05,19.121528200308482
271,0.09624185391208705,1.0,2.4471741852423235e-05,19.192882895469666
272,0.09619722208556007,0.9999712775735294,2.282587464572594e-05,19.26316031217575
273,0.0971671329701648,0.9997989430147058,2.12360059383212e-05,19.332699918746947
274,0.09597039003582562,0.9999712775735294,1.9702322308350672e-05,19.401705507437388
275,0.09697402728831067,0.9998851102941176,1.8225003740388545e-05,19.47085827589035
276,0.0952947595540215,1.0,1.680422360431877e-05,19.542515901724496
277,0.09551726259729441,0.9999138327205882,1.544014863498977e-05,19.612733932336173
278,0.09607036828118212,0.9999712775735294,1.4132938912647276e-05,19.682108656565347
279,0.09655609244809431,0.9998851102941176,1.288274784414789e-05,19.751827104886374
280,0.09669945936869173,0.9997989430147058,1.1689722144956671e-05,19.82010846932729
281,0.09682469573967598,0.9997127757352942,1.055400182192906e-05,19.890608354409537
282,0.09662808412138153,0.9998276654411765,9.475720156880418e-06,19.96114811102549
283,0.09658559104975532,0.9999425551470589,8.45500369094504e-06,20.0317059079806
284,0.0968354158103466,0.9997127757352942,7.4919722097258055e-06,20.10150049130122
285,0.0962500030941823,0.9999712775735294,6.58673872923693e-06,20.171520817279816
286,0.09643240667441312,0.9999712775735294,5.739409482640901e-06,20.245066610972085
287,0.0966390073299408,0.9998563878676471,4.950083907781733e-06,20.317457195123037
288,0.09663096574299476,0.9999425551470589,4.218854635515301e-06,20.38798391421636
289,0.0964781865477562,0.9999712775735294,3.545807478838814e-06,20.453707734743755
290,0.09646384396097239,0.9999425551470589,2.9310214228202015e-06,20.519502786795297
291,0.0963849986300749,0.9999425551470589,2.3745686153290315e-06,20.59123516480128
292,0.09618919057881131,0.9999425551470589,1.8765143585693922e-06,20.66175257762273
293,0.09599921742782873,1.0,1.4369171014165793e-06,20.732465350627898
294,0.09682921385940384,0.9999425551470589,1.0558284325578037e-06,20.802768540382385
295,0.09632876164772931,0.9998851102941176,7.332930744380905e-07,20.873297770818073
296,0.09627470439847778,0.9999425551470589,4.6934887801164396e-07,20.946043495337168
297,0.09625200247939895,1.0,2.6402681830023365e-07,21.01504554748535
298,0.09662115595796529,0.9999425551470589,1.173509907579362e-07,21.08586512406667
299,0.09582571400439038,0.9999712775735294,2.933860844345215e-08,21.15512742201487
300,0.09608598184936187,0.9997702205882353,0.0,21.224987045923868
