epoch,loss,top1,lr,minutes
1,4.291518828448127,0.400390625,0.00010294117647058823,0.08344557682673136
2,2.500063587637509,0.6750057444852942,0.00020294117647058824,0.14722625414530435
3,1.8342063426971436,0.83740234375,0.00030294117647058824,0.21206135749816896
4,1.4447923337712008,0.9029181985294118,0.0004029411764705883,0.27641847133636477
5,1.1056727609213661,0.9385914522058824,0.0005029411764705883,0.34190699259440105
6,0.8551866903024561,0.9592428768382353,0.0006029411764705882,0.40832956234614054
7,0.7044697438969332,0.9693818933823529,0.0007029411764705881,0.4738274614016215
8,0.5785877914989696,0.9787166819852942,0.0008029411764705883,0.5390640775362651
9,0.49946273337392244,0.9849207261029411,0.0009029411764705882,0.6045709093411763
10,0.4427519721143386,0.9875919117647058,0.001,0.6697401285171509
11,0.3972468341098112,0.9912396599264706,0.0009999706613915565,0.7363741795221964
12,0.37038205826983733,0.9917853860294118,0.000999882649009242,0.8022583444913228
13,0.3386731358135448,0.9937959558823529,0.0009997359731816998,0.8670842766761779
14,0.31729405417161827,0.9942555147058824,0.0009995306511219884,0.93209388256073
15,0.30354593343594494,0.9950884650735294,0.0009992667069255619,0.9974013368288676
16,0.29584110484403725,0.9944565716911765,0.0009989441715674422,1.063535710175832
17,0.2803124066661386,0.9949161305147058,0.0009985630828985835,1.1292704900105794
18,0.27249859887010913,0.9952607996323529,0.0009981234856414306,1.194456191857656
19,0.2626504836713566,0.9961799172794118,0.000997625431384671,1.2600958188374838
20,0.25815919523729997,0.9949161305147058,0.0009970689785771798,1.324545939763387
21,0.24742166172055638,0.9962660845588235,0.0009964541925211613,1.3900102814038595
22,0.24163507363375494,0.9967256433823529,0.0009957811453644848,1.455632221698761
23,0.235577853725237,0.9961799172794118,0.0009950499160922184,1.5201696753501892
24,0.2356687367838972,0.9963522518382353,0.0009942605905173593,1.5858158548672994
25,0.23243072366013245,0.9960363051470589,0.0009934132612707631,1.6515960772832234
26,0.22319463947240045,0.9969554227941176,0.0009925080277902742,1.7184938430786132
27,0.21685613078229568,0.9970990349264706,0.000991544996309055,1.7843725085258484
28,0.21273171682568157,0.9972713694852942,0.0009905242798431196,1.8502001603444418
29,0.21156392816235037,0.9968405330882353,0.000989445998178071,1.9157589673995972
30,0.2102593231727095,0.9968405330882353,0.0009883102778550433,1.9818994164466859
31,0.20611586903824525,0.9971852022058824,0.0009871172521558522,2.0499030391375226
32,0.2050580207039328,0.9971277573529411,0.0009858670610873527,2.1156303763389586
33,0.1990021362024195,0.9972426470588235,0.0009845598513650103,2.1816006461779276
34,0.2009890574742766,0.9970128676470589,0.0009831957763956813,2.2480594595273335
35,0.19414004245225122,0.9975011488970589,0.0009817749962596114,2.314273158709208
36,0.19667252766735413,0.9975011488970589,0.0009802976776916493,2.384886598587036
37,0.1955297690104036,0.9976734834558824,0.0009787639940616788,2.452741038799286
38,0.19159622183617422,0.9975011488970589,0.000977174125354274,2.5226349035898843
39,0.1915005524368847,0.9968979779411765,0.0009755282581475768,2.592219380537669
40,0.19041224788216984,0.9973862591911765,0.0009738265855914012,2.661649262905121
41,0.18596999960787156,0.9978458180147058,0.0009720693073845667,2.730269726117452
42,0.18544335663318634,0.9972139246323529,0.000970256629751462,2.795371651649475
43,0.18357265127055786,0.9981330422794118,0.0009683887654178445,2.8600141604741416
44,0.17880747949375825,0.9982479319852942,0.0009664659335858754,2.925766925017039
45,0.17617133917177424,0.9979894301470589,0.0009644883599083958,2.9909066796302795
46,0.17914019042954726,0.9976160386029411,0.0009624562764624445,3.0588348229726154
47,0.17822953970993266,0.9980181525735294,0.0009603699217220239,3.124758791923523
48,0.17702356682104223,0.9977596507352942,0.000958229540530113,3.1909899711608887
49,0.17996792363769867,0.9970990349264706,0.000956035384069935,3.2567558685938516
50,0.17798482276061,0.9979607077205882,0.0009537877098354786,3.3231828490893047
51,0.17261901147225323,0.9977022058823529,0.0009514867816012809,3.39015367825826
52,0.16911991729455836,0.998046875,0.0009491328693914722,3.456090720494588
53,0.16947922548827002,0.9980181525735294,0.0009467262494480868,3.5220205148061114
54,0.1735866350286147,0.9974724264705882,0.0009442672041986457,3.587060785293579
55,0.17032772346454508,0.9982479319852942,0.0009417560222230115,3.652182964483897
56,0.17153178681345546,0.99755859375,0.0009391929982195233,3.719377640883128
57,0.1702020698610474,0.9973000919117647,0.0009365784329704115,3.784839419523875
58,0.16429827537606745,0.9981904871323529,0.0009339126333065006,3.850050179163615
59,0.16648884117603302,0.9978745404411765,0.000931195912071201,3.9161232233047487
60,0.16323049322647207,0.9983915441176471,0.0009284285880837946,3.982162630558014
61,0.16068883196395986,0.9983915441176471,0.0009256109861020212,4.049551518758138
62,0.16404670652221232,0.9979607077205882,0.0009227434367839658,4.115267451604208
63,0.1606891895918285,0.9986787683823529,0.0009198262766492554,4.181275800863902
64,0.16234412570210063,0.9981330422794118,0.0009168598480395651,4.247465900580088
65,0.15832486222772038,0.9983915441176471,0.0009138444990784454,4.312782061100006
66,0.16041028411949382,0.9980755974264706,0.0009107805836304658,4.379185378551483
67,0.16155028080239014,0.9974437040441176,0.000907668461259689,4.445100363095602
68,0.15624968619907603,0.9983340992647058,0.0009045084971874737,4.510732332865397
69,0.15909073063555887,0.9981043198529411,0.0009013010622496143,4.57637391090393
70,0.15848346799612045,0.9979032628676471,0.0008980465328528219,4.642813841501872
71,0.15921181089737835,0.9979894301470589,0.0008947452909305509,4.710303942362468
72,0.15416743036578684,0.9984489889705882,0.0008913977238981779,4.7764379501342775
73,0.1546673042809262,0.99853515625,0.0008880042246075365,4.841406257947286
74,0.15169195217244766,0.9989085477941176,0.0008845651913008145,4.907634313901266
75,0.15358426378053777,0.9986213235294118,0.0008810810275638182,4.973494005203247
76,0.1550218905596172,0.9982766544117647,0.0008775521422786103,5.040834259986878
77,0.15084459019057891,0.9988511029411765,0.0008739789495755254,5.10658001502355
78,0.15128743210259607,0.9984777113970589,0.0008703618687845696,5.1730166594187414
79,0.15381712817093907,0.99853515625,0.0008667013243862111,5.238816960652669
80,0.15148555136778774,0.9987362132352942,0.0008629977459615654,5.305589421590169
81,0.14937626132193735,0.9985926011029411,0.0008592515681419813,5.371972453594208
82,0.15114892843891592,0.998046875,0.0008554632305580354,5.4378880580266316
83,0.15236198682995403,0.9980181525735294,0.00085163317778794,5.503764319419861
84,0.1486314644708353,0.9985638786764706,0.0008477618593053693,5.569030352433523
85,0.149194759042824,0.9982192095588235,0.0008438497294267117,5.634412777423859
86,0.14713828484801686,0.9984777113970589,0.0008398972472577539,5.701986074447632
87,0.14843673872597077,0.9987936580882353,0.0008359048766398031,5.768109138806661
88,0.147935671841397,0.9985926011029411,0.0008318730860952522,5.833647429943085
89,0.147815523778691,0.9984489889705882,0.000827802348772598,5.898641300201416
90,0.1446242516531664,0.9988511029411765,0.0008236931423909139,5.9640719294548035
91,0.1454846845830188,0.9988798253676471,0.000819545949183788,6.031224660078684
92,0.1451167814871844,0.9986500459558824,0.0008153612558427309,6.096917891502381
93,0.14536954637836008,0.9983340992647058,0.0008111395534600603,6.162749397754669
94,0.14375902054940953,0.9987074908088235,0.0008068813374712689,6.22820326089859
95,0.14576478916056015,0.9983915441176471,0.0008025871075968827,6.293772900104523
96,0.14502878487110138,0.9989659926470589,0.0007982573677838172,6.361087826887767
97,0.14463701230638168,0.9985638786764706,0.0007938926261462366,6.428059458732605
98,0.1446180738070432,0.9981330422794118,0.0007894933949059243,6.493018698692322
99,0.14179292014416525,0.9990808823529411,0.0007850601903321716,6.557834617296854
100,0.14320117717280106,0.9987936580882353,0.0007805935326811913,6.623117733001709
101,0.14303740639896953,0.9987074908088235,0.0007760939461350624,6.6898727178573605
102,0.14384145421140335,0.9985638786764706,0.0007715619587402164,6.7555935700734455
103,0.14395763988004012,0.9987936580882353,0.000766998102345468,6.821081360181172
104,0.14085046333425186,0.9990234375,0.0007624029125396003,6.8868000944455465
105,0.14172962702372494,0.9985926011029411,0.0007577769285885109,6.952039368947347
106,0.1405858822605189,0.9987074908088235,0.0007531206933719271,7.0180913011233015
107,0.1436339572948568,0.9985064338235294,0.0007484347533196961,7.083022403717041
108,0.13816722833058415,0.9989659926470589,0.0007437196583476597,7.1487475514411924
109,0.13887650738744176,0.9989947150735294,0.0007389759617931182,7.214451797803243
110,0.1384796977919691,0.9988511029411765,0.0007342042203498951,7.280003599325815
111,0.13686821039985209,0.9991957720588235,0.0007294049940030055,7.347251296043396
112,0.13784154811326196,0.9988223805147058,0.0007245788459629396,7.41263861656189
113,0.137644004295854,0.9990521599264706,0.0007197263425995681,7.478720049063365
114,0.13823899013154647,0.9988223805147058,0.0007148480533756759,7.544756642977396
115,0.13880512074512594,0.9986213235294118,0.0007099445507801323,7.610388791561126
116,0.1395979734028087,0.9987362132352942,0.000705016410260708,7.677888317902883
117,0.13605398597086177,0.9987936580882353,0.0007000642101565435,7.743474503358205
118,0.13407556033309767,0.9993106617647058,0.0006950885316302773,7.810849873224894
119,0.13593878640848048,0.9990808823529411,0.000690089958599846,7.876524698734284
120,0.13633358303238363,0.9989085477941176,0.0006850690776699572,7.942193528016408
121,0.1344108349260162,0.9991383272058824,0.0006800264780632495,8.009237031141916
122,0.13687053454272888,0.9987936580882353,0.0006749627515511443,8.075282283624013
123,0.13610906767494538,0.9991383272058824,0.0006698784923843993,8.142221335570017
124,0.13246329063001802,0.9992532169117647,0.0006647742972233702,8.20759665966034
125,0.13514790026580586,0.9989085477941176,0.00065965076506799,8.272683648268382
126,0.13185431107002146,0.9990234375,0.0006545084971874737,8.339534012476603
127,0.1323182755971656,0.9988223805147058,0.0006493480970497568,8.405508665243785
128,0.13104000249329736,0.9990808823529411,0.0006441701702506753,8.471463890870412
129,0.13330008396331003,0.9989372702205882,0.0006389753244428972,8.537548728783925
130,0.13187087721684398,0.9992244944852942,0.0006337641692646103,8.602985215187072
131,0.13323870542294838,0.9991670496323529,0.0006285373162679804,8.67044058640798
132,0.13490401953458786,0.9988223805147058,0.0006232953788473809,8.735719279448192
133,0.13389574626789374,0.9989659926470589,0.0006180389721674102,8.802450668811797
134,0.13226759915842728,0.9987649356617647,0.0006127687130906971,8.868059372901916
135,0.1337407375959789,0.9990521599264706,0.0006074852201055121,8.934124326705932
136,0.13309220465667107,0.9989372702205882,0.0006021891132531825,9.000767890612284
137,0.13389269547427401,0.9988511029411765,0.0005968810140553292,9.065667140483857
138,0.13386501174639254,0.9989372702205882,0.000591561545440928,9.130874435106913
139,0.13101219429689295,0.9991383272058824,0.0005862313316732063,9.196171458562215
140,0.13245612360975323,0.9987074908088235,0.0005808909982763825,9.26159227291743
141,0.130830187788781,0.9992244944852942,0.0005755411719622584,9.328433267275493
142,0.13202136601595318,0.9989659926470589,0.0005701824805566722,9.394387944539387
143,0.13161384467692935,0.9992532169117647,0.0005648155529258194,9.459702146053313
144,0.1339665940579246,0.9986787683823529,0.0005594410189024533,9.525249354044597
145,0.13246071426307454,0.9991096047794118,0.0005540595092119709,9.590396495660146
146,0.12903500983820243,0.9991096047794118,0.0005486716553983948,9.65775461991628
147,0.12959206498721065,0.9991096047794118,0.0005432780897502588,9.72438915570577
148,0.1310919273425551,0.9990234375,0.0005378794452264051,9.79057567914327
149,0.13236350916764317,0.9986787683823529,0.0005324763553817053,9.856940325101217
150,0.1308239818934132,0.9989372702205882,0.0005270694542927088,9.922840702533723
151,0.1299170389333192,0.9990808823529411,0.0005216593764832311,9.989718242486317
152,0.12892678905935848,0.9993681066176471,0.0005162467568498903,10.055971391995747
153,0.1282002253129202,0.9993681066176471,0.0005108322305875987,10.121393871307372
154,0.13058637761894396,0.9985638786764706,0.0005054164331150199,10.187019050121307
155,0.13026749627555118,0.9989372702205882,0.0005,10.252618964513143
156,0.12753168055239847,0.9992244944852942,0.0004945835668849801,10.319480510552724
157,0.12671361271949375,0.9996266084558824,0.0004891677694124013,10.384310825665791
158,0.12885807629893808,0.9989372702205882,0.0004837532431501098,10.449730157852173
159,0.12828662662821658,0.9993106617647058,0.00047834062351676893,10.51506050825119
160,0.127389656708521,0.9992244944852942,0.00047293054570729125,10.580027616024017
161,0.12845567328964963,0.9991383272058824,0.0004675236446182947,10.646956153710683
162,0.12768998413401492,0.9989947150735294,0.00046212055477359496,10.712417081991832
163,0.1278992849676048,0.9991957720588235,0.0004567219102497413,10.77899360259374
164,0.12635058076942668,0.9993681066176471,0.0004513283446016052,10.844166946411132
165,0.12614139432416244,0.9992532169117647,0.0004459404907880292,10.909931365648905
166,0.1278916866902043,0.9988798253676471,0.0004405589810975468,10.9780979514122
167,0.12713284483727286,0.9993681066176471,0.00043518444707418076,11.044671960671742
168,0.1273752748966217,0.9990234375,0.00042981751944332785,11.110950219631196
169,0.13081256650826512,0.9988223805147058,0.00042445882803774173,11.176435792446137
170,0.12699812037103317,0.9992819393382353,0.00041910900172361764,11.241837839285532
171,0.12663759291172028,0.9992819393382353,0.0004137686683267938,11.309134825070698
172,0.1252142401302562,0.9993681066176471,0.0004084384545590719,11.374319048722585
173,0.12661619528251536,0.9991096047794118,0.00040311898594467085,11.44067155122757
174,0.1251477581613204,0.9992244944852942,0.00039781088674681754,11.5057514945666
175,0.12541149227934725,0.9993681066176471,0.0003925147798944881,11.57167512178421
176,0.12683290900552974,0.9990234375,0.00038723128690930304,11.639068710803986
177,0.12642559080439456,0.9990808823529411,0.00038196102783259007,11.705018838246664
178,0.1247947950135259,0.9992244944852942,0.00037670462115261914,11.771437140305837
179,0.1246115052524735,0.9994255514705882,0.00037146268373201965,11.837030522028606
180,0.12427106368191101,0.9990808823529411,0.0003662358307353897,11.902521272500357
181,0.12198797087459003,0.9993393841911765,0.00036102467555710287,11.969908475875854
182,0.1231819500817972,0.9994542738970589,0.00035582982974932464,12.035565026601155
183,0.12244654161965146,0.9993106617647058,0.0003506519029502432,12.101093367735546
184,0.12399852341588806,0.9995691636029411,0.00034549150281252633,12.166959762573242
185,0.1256816689582432,0.9989372702205882,0.00034034923493201,12.232465712229411
186,0.12419749029419001,0.9992244944852942,0.0003352257027766298,12.29889831940333
187,0.12462766709573128,0.9990521599264706,0.00033012150761560087,12.365006709098816
188,0.12287007776253364,0.9992819393382353,0.0003250372484488559,12.431006971995036
189,0.12254872983869385,0.9991957720588235,0.0003199735219367508,12.496745264530182
190,0.123458853977568,0.9993968290441176,0.0003149309223300429,12.561972510814666
191,0.12380646738935919,0.9993106617647058,0.000309910041400154,12.629012441635131
192,0.12330262121908805,0.9990521599264706,0.00030491146836972283,12.694700372219085
193,0.1222382713766659,0.9992532169117647,0.00029993578984345673,12.761515041192373
194,0.12303198501467705,0.9991670496323529,0.000294983589739292,12.827338620026906
195,0.1229355468907777,0.9995691636029411,0.0002900554492198677,12.892935434977213
196,0.12324579892789617,0.9990521599264706,0.00028515194662432405,12.960280168056489
197,0.12311499916455325,0.9993393841911765,0.0002802736574004319,13.026187153657277
198,0.12274392124484568,0.9994542738970589,0.00027542115403706064,13.092262736956279
199,0.12085172468248535,0.9994255514705882,0.0002705950059969948,13.157974910736083
200,0.12151340723914258,0.9996266084558824,0.000265795779650105,13.223269188404084
201,0.12205439017099493,0.9991957720588235,0.0002610240382068818,13.29015281200409
202,0.12078940758810323,0.9994542738970589,0.0002562803416523405,13.355887273947397
203,0.12281958210994215,0.9993968290441176,0.000251565246680304,13.42154421011607
204,0.12217508168781505,0.9992532169117647,0.000246879306628073,13.486759420235952
205,0.12225443869829178,0.9991957720588235,0.00024222307141148907,13.552898391087849
206,0.11945599536685382,0.9995978860294118,0.00023759708746039977,13.620305160681406
207,0.12194120095056646,0.9993393841911765,0.00023300189765453194,13.686688113212586
208,0.12119893357157707,0.9991670496323529,0.00022843804125978356,13.752412048975627
209,0.12117602478931933,0.9992244944852942,0.00022390605386493756,13.817850681145986
210,0.12121875912827604,0.9993681066176471,0.00021940646731880887,13.88427948554357
211,0.12199698914499844,0.9992819393382353,0.00021493980966782845,13.950772500038147
212,0.12068843885379679,0.9989947150735294,0.00021050660509407576,14.016295230388641
213,0.12043088148621951,0.99951171875,0.00020610737385376348,14.081720821062724
214,0.12052219689768903,0.9993393841911765,0.00020174263221618284,14.147642302513123
215,0.1186757223571048,0.99951171875,0.00019741289240311755,14.212625284989675
216,0.11991776876589831,0.9994829963235294,0.00019311866252873128,14.279999427000682
217,0.11964035735410802,0.99951171875,0.00018886044653993966,14.345619078477224
218,0.12138951043872272,0.9991670496323529,0.000184638744157269,14.411495864391327
219,0.11962425292414777,0.9993393841911765,0.00018045405081621214,14.477587187290192
220,0.11876958652454264,0.9994829963235294,0.00017630685760908622,14.543110930919648
221,0.11997832949547206,0.9995691636029411,0.00017219765122740216,14.610165623823802
222,0.12096710525014821,0.9995404411764706,0.00016812691390474788,14.676984707514444
223,0.1205599476747653,0.9992244944852942,0.00016409512336019698,14.743173559506735
224,0.11878751393626719,0.9993968290441176,0.00016010275274224624,14.810050348440805
225,0.11810108800144757,0.9996840533088235,0.00015615027057328847,14.87640240987142
226,0.11930546843830277,0.9989085477941176,0.00015223814069463077,14.943474014600119
227,0.12036022368599386,0.9994829963235294,0.00014836682221206,15.009440124034882
228,0.11722864342086456,0.9996266084558824,0.00014453676944196475,15.07472349802653
229,0.11811278081115555,0.9994829963235294,0.00014074843185801883,15.140511278311411
230,0.11742662441204577,0.9996553308823529,0.00013700225403843458,15.206174008051555
231,0.11868973887142013,0.9993681066176471,0.00013329867561378872,15.27322236696879
232,0.1180661393000799,0.9992819393382353,0.0001296381312154305,15.33890483379364
233,0.11784550459945903,0.9995404411764706,0.00012602105042447482,15.4045148173968
234,0.12007070639554192,0.9991670496323529,0.0001224478577213897,15.470190544923147
235,0.11753062487525098,0.9993968290441176,0.00011891897243618183,15.53576827843984
236,0.11936941633329672,0.9993106617647058,0.00011543480869918555,15.602360260486602
237,0.11935389480170082,0.9992819393382353,0.00011199577539246347,15.667500134309133
238,0.11724402492537218,0.9995978860294118,0.00010860227610182222,15.732797340552013
239,0.11882021037094734,0.9992819393382353,0.00010525470906944917,15.799149505297343
240,0.11775822433478692,0.9994255514705882,0.00010195346714717812,15.865292410055796
241,0.1182047154973535,0.9993106617647058,9.869893775038557e-05,15.932667867342632
242,0.11755193002960261,0.9995691636029411,9.549150281252633e-05,15.997783144315084
243,0.1162056140601635,0.9995404411764706,9.233153874031102e-05,16.063135385513306
244,0.11645695698611877,0.9996266084558824,8.921941636953435e-05,16.129238486289978
245,0.11875400867532282,0.9991957720588235,8.615550092155477e-05,16.194066902001698
246,0.11910470947623253,0.9993968290441176,8.31401519604349e-05,16.26154934167862
247,0.11824246211087003,0.9994829963235294,8.017372335074486e-05,16.327214630444846
248,0.11748264554668875,0.9997127757352942,7.725656321603413e-05,16.393170773983
249,0.11955315203351133,0.9991096047794118,7.43890138979788e-05,16.458806391557058
250,0.11684066298253395,0.9993968290441176,7.157141191620536e-05,16.52408391237259
251,0.11929930899949635,0.9991957720588235,6.880408792879905e-05,16.590633896986642
252,0.11751172297141131,0.9994255514705882,6.60873666934993e-05,16.656104969978333
253,0.11805140314733281,0.9993968290441176,6.342156702958851e-05,16.72121466398239
254,0.1171357083846541,0.9993393841911765,6.080700178047677e-05,16.787074251969656
255,0.11651396532269086,0.9996840533088235,5.8243977776988585e-05,16.852062503496807
256,0.11824482000049423,0.9993393841911765,5.573279580135448e-05,16.919052867094674
257,0.11694124341011047,0.99951171875,5.3273750551913246e-05,16.984276366233825
258,0.11572147861999624,0.9996553308823529,5.086713060852788e-05,17.049766973654428
259,0.11691294829635059,0.9994542738970589,4.851321839871908e-05,17.11586540142695
260,0.11899550083805532,0.9989947150735294,4.621229016452155e-05,17.180790305137634
261,0.11691772324197433,0.9992532169117647,4.3964615930065124e-05,17.247753024101257
262,0.11669955161564491,0.9994255514705882,4.1770459469887e-05,17.313295912742614
263,0.11671333891503952,0.9993681066176471,3.963007827797621e-05,17.378540647029876
264,0.11824021093985614,0.9995404411764706,3.754372353755558e-05,17.445240179697674
265,0.11711263284087181,0.9993393841911765,3.551164009160429e-05,17.511029628912606
266,0.11655246773186852,0.9996266084558824,3.3534066414124486e-05,17.57715942064921
267,0.11673141621491488,0.9993968290441176,3.161123458215553e-05,17.64300590356191
268,0.11596600623691783,0.9994542738970589,2.9743370248538015e-05,17.70955357948939
269,0.1174360544365995,0.9992819393382353,2.7930692615433406e-05,17.77597039937973
270,0.11814164633260053,0.9993968290441176,2.617341440859883e-05,17.840942176183066
271,0.11807838323361733,0.9995404411764706,2.4471741852423235e-05,17.907290673255922
272,0.11570026155780344,0.9996266084558824,2.282587464572594e-05,17.973003379503886
273,0.11541651737164049,0.9994829963235294,2.12360059383212e-05,18.039603702227275
274,0.11674619575633723,0.9994542738970589,1.9702322308350672e-05,18.104755671819053
275,0.11703603429829373,0.9994542738970589,1.8225003740388545e-05,18.170053044954937
276,0.1167691056342686,0.9992819393382353,1.680422360431877e-05,18.236954605579378
277,0.11519529144553577,0.9997127757352942,1.544014863498977e-05,18.303381053606667
278,0.11751289139775668,0.9994829963235294,1.4132938912647276e-05,18.368798311551412
279,0.11676800513968748,0.9997702205882353,1.288274784414789e-05,18.43470392227173
280,0.11630621859255959,0.9995691636029411,1.1689722144956671e-05,18.49961961507797
281,0.11746637829962898,0.9992244944852942,1.055400182192906e-05,18.566407589117684
282,0.11669658475062426,0.9994829963235294,9.475720156880418e-06,18.632465902964274
283,0.11645532771945,0.9993106617647058,8.45500369094504e-06,18.697614276409148
284,0.11481459811329842,0.9995404411764706,7.4919722097258055e-06,18.76353371143341
285,0.11631794821690111,0.9995978860294118,6.58673872923693e-06,18.829423264662424
286,0.11587758186985464,0.9996553308823529,5.739409482640901e-06,18.895817863941193
287,0.11543792573844686,0.9994542738970589,4.950083907781733e-06,18.962113984425862
288,0.115685903631589,0.99951171875,4.218854635515301e-06,19.027451356252033
289,0.11703863849534708,0.9993393841911765,3.545807478838814e-06,19.093942526976267
290,0.11456784562152975,0.9994829963235294,2.9310214228202015e-06,19.1594677289327
291,0.11601244592491318,0.9993681066176471,2.3745686153290315e-06,19.22630486090978
292,0.11589404765297384,0.9996266084558824,1.8765143585693922e-06,19.292530556519825
293,0.11520128193147042,0.9995691636029411,1.4369171014165793e-06,19.358189149697623
294,0.11679009545375318,0.9994542738970589,1.0558284325578037e-06,19.42338853677114
295,0.11624720648807638,0.9993968290441176,7.332930744380905e-07,19.488193535804747
296,0.11636861172669075,0.9994542738970589,4.6934887801164396e-07,19.555542504787446
297,0.11625329185934628,0.99951171875,2.6402681830023365e-07,19.620927198727927
298,0.11565827731700505,0.9996266084558824,1.173509907579362e-07,19.685687537988027
299,0.11596795018104945,0.9994542738970589,2.933860844345215e-08,19.751075530052184
300,0.11766934000393924,0.9993106617647058,0.0,19.816423984368644
