epoch,loss,top1,lr,minutes
1,3.473887127988479,0.5753963694852942,0.00010294117647058823,0.08858874638875326
2,2.1464779201675865,0.7742991727941176,0.00020294117647058824,0.16034501393636066
3,1.5506368840441984,0.8897058823529411,0.00030294117647058824,0.23047698736190797
4,1.166741381673252,0.9354032628676471,0.0004029411764705883,0.300829021135966
5,0.9171959652620203,0.9536994485294118,0.0005029411764705883,0.3732523600260417
6,0.7351652050719542,0.9673713235294118,0.0006029411764705882,0.44620280265808104
7,0.5950083066435421,0.9762178308823529,0.0007029411764705881,0.5180456121762593
8,0.49357421959147735,0.9839441636029411,0.0008029411764705883,0.5900326093037923
9,0.419693929307601,0.98974609375,0.0009029411764705882,0.6621066093444824
10,0.3635842493351768,0.9932215073529411,0.001,0.7330496152242024
11,0.31520728416302624,0.9961799172794118,0.0009999706613915565,0.8079308867454529
12,0.2899594035218744,0.9966969209558824,0.000999882649009242,0.8810641606648763
13,0.26632439564256105,0.9974724264705882,0.0009997359731816998,0.9518531799316406
14,0.25303346882848177,0.9978745404411765,0.0009995306511219884,1.0226954023043315
15,0.24253156693542705,0.9981330422794118,0.0009992667069255619,1.0929259300231933
16,0.2291978689677575,0.9987649356617647,0.0009989441715674422,1.1657439470291138
17,0.2249825417118914,0.9977883731617647,0.0009985630828985835,1.2374964753786724
18,0.21732707453124664,0.9979319852941176,0.0009981234856414306,1.3100833495457966
19,0.20952750347992954,0.99853515625,0.000997625431384671,1.379598061243693
20,0.20264282340512557,0.9987936580882353,0.0009970689785771798,1.4474740266799926
21,0.1948059157413595,0.9988223805147058,0.0009964541925211613,1.519690712292989
22,0.19295863894855275,0.9987362132352942,0.0009957811453644848,1.5912320335706076
23,0.1918137647649821,0.9983915441176471,0.0009950499160922184,1.6647814432779948
24,0.18582681960919323,0.9986500459558824,0.0009942605905173593,1.7366573969523111
25,0.18215399629929485,0.9988798253676471,0.0009934132612707631,1.8080120960871378
26,0.17647475398638668,0.9990234375,0.0009925080277902742,1.8824575304985047
27,0.17715124084669,0.9988798253676471,0.000991544996309055,1.9550873955090842
28,0.17104842426145778,0.9992819393382353,0.0009905242798431196,2.0277687470118204
29,0.16775541182826548,0.9994829963235294,0.000989445998178071,2.0992748022079466
30,0.16798551687422922,0.9989085477941176,0.0009883102778550433,2.1712245186169943
31,0.1639881581068039,0.9992532169117647,0.0009871172521558522,2.2449879169464113
32,0.1629752608783105,0.9993968290441176,0.0009858670610873527,2.317014519373576
33,0.15979458391666412,0.9994542738970589,0.0009845598513650103,2.3891855398813884
34,0.1594894883387229,0.9988798253676471,0.0009831957763956813,2.460959525903066
35,0.1558510586619377,0.9996553308823529,0.0009817749962596114,2.5332010865211485
36,0.15368625083390405,0.9996266084558824,0.0009802976776916493,2.606697193781535
37,0.15207484495990417,0.9993681066176471,0.0009787639940616788,2.678455070654551
38,0.15240774216020808,0.9990808823529411,0.000977174125354274,2.7494736631711323
39,0.1480888842659838,0.9995978860294118,0.0009755282581475768,2.8225658734639487
40,0.14755901343682232,0.9995978860294118,0.0009738265855914012,2.8935118158658346
41,0.14703180991551457,0.9994542738970589,0.0009720693073845667,2.96838862101237
42,0.14403647272025838,0.99951171875,0.000970256629751462,3.039302674929301
43,0.14304062811767354,0.9993968290441176,0.0009683887654178445,3.1104503949483235
44,0.14218938569812214,0.9996266084558824,0.0009664659335858754,3.1822644035021463
45,0.14233187498415217,0.9992532169117647,0.0009644883599083958,3.25390617052714
46,0.1400219482534072,0.9994542738970589,0.0009624562764624445,3.3282492558161416
47,0.14113816531265483,0.9994255514705882,0.0009603699217220239,3.400135616461436
48,0.13784312851288738,0.9995691636029411,0.000958229540530113,3.471855088075002
49,0.13965830075390198,0.9992244944852942,0.000956035384069935,3.5439908067385355
50,0.13872457032694535,0.9995404411764706,0.0009537877098354786,3.615139909585317
51,0.13776185670319727,0.9996840533088235,0.0009514867816012809,3.6878676414489746
52,0.13680173851111355,0.9994829963235294,0.0009491328693914722,3.7591086506843565
53,0.13454654155408635,0.9995691636029411,0.0009467262494480868,3.831447712580363
54,0.13437187627834432,0.9996553308823529,0.0009442672041986457,3.9045599818229677
55,0.13358150729361704,0.9996266084558824,0.0009417560222230115,3.9766626636187237
56,0.13262895845315037,0.9995691636029411,0.0009391929982195233,4.050549121697744
57,0.13148800743853345,0.9996553308823529,0.0009365784329704115,4.120936826864878
58,0.13232324864057934,0.9995404411764706,0.0009339126333065006,4.192763658364614
59,0.13214482235557892,0.9997127757352942,0.000931195912071201,4.264591201146444
60,0.1292423781226663,0.9998276654411765,0.0009284285880837946,4.336538310845693
61,0.12854442153783405,0.9999138327205882,0.0009256109861020212,4.410378587245941
62,0.1286393712986918,0.9996840533088235,0.0009227434367839658,4.48263783454895
63,0.12699722542482264,0.9997414981617647,0.0009198262766492554,4.554400412241618
64,0.12687734470647924,0.9997414981617647,0.0009168598480395651,4.624727348486583
65,0.1270725317299366,0.9995978860294118,0.0009138444990784454,4.696524592240651
66,0.12731479371295257,0.9994542738970589,0.0009107805836304658,4.769024670124054
67,0.12598340344779632,0.9996840533088235,0.000907668461259689,4.840791964530945
68,0.1259356590316576,0.9995691636029411,0.0009045084971874737,4.912465425332387
69,0.12432563874651403,0.99951171875,0.0009013010622496143,4.984048970540365
70,0.12449419783318744,0.9996840533088235,0.0008980465328528219,5.0553708871205645
71,0.12451875998693354,0.9996553308823529,0.0008947452909305509,5.130248034000397
72,0.12438205498106339,0.9995978860294118,0.0008913977238981779,5.202492773532867
73,0.12306326649644796,0.9996266084558824,0.0008880042246075365,5.275386774539948
74,0.1238022424718913,0.9997414981617647,0.0008845651913008145,5.347268136342366
75,0.12277315841878161,0.9999138327205882,0.0008810810275638182,5.420155882835388
76,0.12163211799719754,0.9998563878676471,0.0008775521422786103,5.493549565474193
77,0.12222128514857854,0.9997127757352942,0.0008739789495755254,5.566020186742147
78,0.12261510026805542,0.9997414981617647,0.0008703618687845696,5.638428584734599
79,0.12123184694963343,0.9995691636029411,0.0008667013243862111,5.711527848243714
80,0.12100542533923597,0.9996266084558824,0.0008629977459615654,5.783760559558869
81,0.1208752783782342,0.9997989430147058,0.0008592515681419813,5.8579114874204
82,0.11975651847965577,0.9995978860294118,0.0008554632305580354,5.9289292931556705
83,0.11840842028751093,0.9997989430147058,0.00085163317778794,6.00188912153244
84,0.11902722475283287,0.9999138327205882,0.0008477618593053693,6.073379874229431
85,0.11855452507734299,0.9996266084558824,0.0008438497294267117,6.146704709529876
86,0.11705032056745361,0.9998276654411765,0.0008398972472577539,6.22084938287735
87,0.11777190732605317,0.9998563878676471,0.0008359048766398031,6.292943664391836
88,0.11680527754566249,0.9997702205882353,0.0008318730860952522,6.365331590175629
89,0.11777659659000005,0.9997414981617647,0.000827802348772598,6.437052838007609
90,0.11855731531977654,0.9997989430147058,0.0008236931423909139,6.5085623105367025
91,0.11715936923728269,0.9995691636029411,0.000819545949183788,6.582179880142212
92,0.11755046774359311,0.9997414981617647,0.0008153612558427309,6.65451180934906
93,0.1186708345570985,0.9997702205882353,0.0008111395534600603,6.728412902355194
94,0.11506988853216171,0.9998563878676471,0.0008068813374712689,6.799162677923838
95,0.11587410288698533,0.9997127757352942,0.0008025871075968827,6.872870727380117
96,0.11603233963251114,0.9998563878676471,0.0007982573677838172,6.947204037507375
97,0.11509385354378644,0.9997414981617647,0.0007938926261462366,7.0195574482282
98,0.11549647809828029,0.9997702205882353,0.0007894933949059243,7.091213111082713
99,0.11439126028734095,0.9997702205882353,0.0007850601903321716,7.161985496679942
100,0.11513174325227737,0.99951171875,0.0007805935326811913,7.234462809562683
101,0.11542446341584711,0.9998276654411765,0.0007760939461350624,7.308961296081543
102,0.1134885867290637,0.9999138327205882,0.0007715619587402164,7.3811245600382485
103,0.11419074259260122,0.9998276654411765,0.000766998102345468,7.451951253414154
104,0.11239231465493932,0.9999712775735294,0.0007624029125396003,7.524788955847423
105,0.11379697612103294,0.9997989430147058,0.0007577769285885109,7.59741489092509
106,0.11352616986807655,0.9999425551470589,0.0007531206933719271,7.672327999273936
107,0.11416377587353482,0.9997414981617647,0.0007484347533196961,7.744676689306895
108,0.11236149620483904,0.9999138327205882,0.0007437196583476597,7.8171510656674705
109,0.11214784225996803,0.9998563878676471,0.0007389759617931182,7.888995846112569
110,0.11204839278669919,0.9997127757352942,0.0007342042203498951,7.962024887402852
111,0.11116653702714864,0.9996553308823529,0.0007294049940030055,8.036668252944946
112,0.11097474527709625,0.9998563878676471,0.0007245788459629396,8.107479973634083
113,0.11120212362969623,0.9996266084558824,0.0007197263425995681,8.17996392250061
114,0.11087661346091944,0.9998276654411765,0.0007148480533756759,8.252269784609476
115,0.1111450158059597,0.9997702205882353,0.0007099445507801323,8.32578848997752
116,0.11094651721856173,0.9997702205882353,0.000705016410260708,8.398768126964569
117,0.11114062303129364,0.9996266084558824,0.0007000642101565435,8.47063370148341
118,0.11019319361623596,0.9997702205882353,0.0006950885316302773,8.543247656027477
119,0.11035513439599205,0.9999712775735294,0.000690089958599846,8.614811360836029
120,0.10941861350746716,0.9998851102941176,0.0006850690776699572,8.686883195241291
121,0.10944855826742508,0.9997702205882353,0.0006800264780632495,8.762000807126363
122,0.1104474952992271,0.9999138327205882,0.0006749627515511443,8.833999307950338
123,0.10944126743604154,1.0,0.0006698784923843993,8.907601221402485
124,0.11014509135309387,0.9996266084558824,0.0006647742972233702,8.981436634063721
125,0.10875256951240932,0.9998563878676471,0.00065965076506799,9.053277444839477
126,0.10836643637979732,0.9998851102941176,0.0006545084971874737,9.126269332567851
127,0.1091323637348764,0.9997989430147058,0.0006493480970497568,9.198658204078674
128,0.10809775529538884,0.9998276654411765,0.0006441701702506753,9.26998111406962
129,0.10893686970367152,0.9999138327205882,0.0006389753244428972,9.342974372704823
130,0.10805003498406972,0.9997414981617647,0.0006337641692646103,9.415566349029541
131,0.10834881970111061,0.9995404411764706,0.0006285373162679804,9.490249228477477
132,0.10807442818494405,0.9999712775735294,0.0006232953788473809,9.55737572113673
133,0.10808593231965513,0.9995978860294118,0.0006180389721674102,9.627663592497507
134,0.10705276732059087,0.9999138327205882,0.0006127687130906971,9.699216953913371
135,0.10735440911615596,0.9998563878676471,0.0006074852201055121,9.771560895442963
136,0.10705386255593861,0.9997989430147058,0.0006021891132531825,9.845883389314016
137,0.10865005763138041,0.9997702205882353,0.0005968810140553292,9.91675526301066
138,0.10708214912344427,0.9997702205882353,0.000591561545440928,9.989156250158945
139,0.10675682828706853,0.9999712775735294,0.0005862313316732063,10.060383248329163
140,0.10710148118874606,0.9997989430147058,0.0005808909982763825,10.131417830785116
141,0.10645267433103393,0.9998563878676471,0.0005755411719622584,10.205217297871908
142,0.1045720360296614,0.9999712775735294,0.0005701824805566722,10.277793490886689
143,0.10661890357732773,0.9998563878676471,0.0005648155529258194,10.35073797305425
144,0.10516277065171915,0.9998851102941176,0.0005594410189024533,10.423227119445801
145,0.10569432377815247,0.9997414981617647,0.0005540595092119709,10.495248540242512
146,0.1061655730009079,0.9999138327205882,0.0005486716553983948,10.567948639392853
147,0.1045680850305978,0.9998851102941176,0.0005432780897502588,10.640097991625469
148,0.10583645784679581,0.9998851102941176,0.0005378794452264051,10.711922876040141
149,0.10502913572332438,0.9999712775735294,0.0005324763553817053,10.783088739713033
150,0.10557982939131119,0.9998563878676471,0.0005270694542927088,10.85434475739797
151,0.10527721047401428,0.9999425551470589,0.0005216593764832311,10.92766004006068
152,0.1046972794129568,0.9997989430147058,0.0005162467568498903,10.999332137902577
153,0.10556119023000493,0.9999138327205882,0.0005108322305875987,11.07051597436269
154,0.10393927903736339,0.9999425551470589,0.0005054164331150199,11.142066864172618
155,0.10405123124227804,1.0,0.0005,11.21572295029958
156,0.10394609741428319,0.9998276654411765,0.0004945835668849801,11.28843970298767
157,0.10517369451768258,0.9999425551470589,0.0004891677694124013,11.36034912665685
158,0.1049761596847983,0.9999138327205882,0.0004837532431501098,11.432286608219147
159,0.10527051700388684,0.9997989430147058,0.00047834062351676893,11.504125046730042
160,0.10395872067002689,0.9999138327205882,0.00047293054570729125,11.575404433409373
161,0.10344600414528567,0.9999712775735294,0.0004675236446182947,11.649678723017376
162,0.10414417964570663,0.9998563878676471,0.00046212055477359496,11.72188702027003
163,0.1042583337163224,0.9997127757352942,0.0004567219102497413,11.793337349096934
164,0.10403453624423813,0.9997702205882353,0.0004513283446016052,11.866857373714447
165,0.10341913866646149,0.9997989430147058,0.0004459404907880292,11.938539616266887
166,0.1025416485088713,0.9998276654411765,0.0004405589810975468,12.012158226966857
167,0.10353822808931856,0.9998563878676471,0.00043518444707418076,12.08379633029302
168,0.10281821165014715,0.9999138327205882,0.00042981751944332785,12.15510553518931
169,0.1035028428715818,0.9998851102941176,0.00042445882803774173,12.226980296770732
170,0.10288652514710146,0.9997989430147058,0.00041910900172361764,12.298759837945303
171,0.10261017829179764,0.9997127757352942,0.0004137686683267938,12.371587558587391
172,0.10215589754721698,1.0,0.0004084384545590719,12.444002715746562
173,0.10202456966919057,0.9999425551470589,0.00040311898594467085,12.51456222931544
174,0.10264203960404676,0.9998851102941176,0.00039781088674681754,12.585981865723928
175,0.10160567786763697,0.9999425551470589,0.0003925147798944881,12.65770327647527
176,0.1030527182361659,0.9997989430147058,0.00038723128690930304,12.730460973580678
177,0.10237219447598737,0.9999425551470589,0.00038196102783259007,12.801242609818777
178,0.10143306040588547,0.9999138327205882,0.00037670462115261914,12.873245187600453
179,0.10159777871826116,0.9999712775735294,0.00037146268373201965,12.945362921555837
180,0.10166982057340004,0.9999712775735294,0.0003662358307353897,13.017146007219951
181,0.10187285481130376,0.9999425551470589,0.00036102467555710287,13.091598272323608
182,0.10132884212276515,0.9999138327205882,0.00035582982974932464,13.164943329493205
183,0.10134147502043668,0.9999712775735294,0.0003506519029502432,13.231878753503164
184,0.10109959761886035,1.0,0.00034549150281252633,13.303530577818552
185,0.1008177344851634,1.0,0.00034034923493201,13.375300057729085
186,0.10029287986895617,1.0,0.0003352257027766298,13.446361883481343
187,0.10077428576700828,1.0,0.00033012150761560087,13.51803393761317
188,0.10008749584941302,0.9998851102941176,0.0003250372484488559,13.588346286614735
189,0.10015951754415736,0.9999138327205882,0.0003199735219367508,13.659644802411398
190,0.09995370774584658,0.9998276654411765,0.0003149309223300429,13.7305162469546
191,0.10038814255419899,0.9999425551470589,0.000309910041400154,13.803918381532034
192,0.10070193186402321,0.9997989430147058,0.00030491146836972283,13.875069936116537
193,0.10089581109145108,1.0,0.00029993578984345673,13.946096360683441
194,0.10007289950461949,0.9999425551470589,0.000294983589739292,14.017256275812786
195,0.10041661231833346,0.9999425551470589,0.0002900554492198677,14.089287785689036
196,0.10037675872445107,0.9998851102941176,0.00028515194662432405,14.16387219429016
197,0.09968661056721911,0.9999712775735294,0.0002802736574004319,14.23539822101593
198,0.09936021465589018,0.9999138327205882,0.00027542115403706064,14.306544931729634
199,0.0990728378734168,0.9999425551470589,0.0002705950059969948,14.379144469896952
200,0.098657816867618,1.0,0.000265795779650105,14.450156625111898
201,0.09860657922485296,0.9999712775735294,0.0002610240382068818,14.523476052284241
202,0.09992088245994904,0.9997702205882353,0.0002562803416523405,14.595061874389648
203,0.09876182587707744,0.9999425551470589,0.000251565246680304,14.66715601682663
204,0.09911251528298154,0.9997414981617647,0.000246879306628073,14.73832852045695
205,0.09892784278182422,0.9999425551470589,0.00024222307141148907,14.810190224647522
206,0.09921112196410403,0.9998851102941176,0.00023759708746039977,14.882829550902049
207,0.09939282869591433,0.9998563878676471,0.00023300189765453194,14.953805553913117
208,0.10011953225030619,0.9998563878676471,0.00022843804125978356,15.024593452612558
209,0.09950856689144583,0.9999712775735294,0.00022390605386493756,15.096019732952119
210,0.09906334824421827,0.9999712775735294,0.00021940646731880887,15.167726063728333
211,0.09863649133373709,0.9998851102941176,0.00021493980966782845,15.239591606458028
212,0.09865742593127139,0.9997989430147058,0.00021050660509407576,15.309686688582103
213,0.09915866571314194,0.9999138327205882,0.00020610737385376348,15.381286883354187
214,0.09926468221580281,0.9998563878676471,0.00020174263221618284,15.452083202203115
215,0.09828467382227674,0.9999138327205882,0.00019741289240311755,15.523557372887929
216,0.09854693623150096,0.9999425551470589,0.00019311866252873128,15.596101597944896
217,0.09887043036082212,0.9999425551470589,0.00018886044653993966,15.667981187502543
218,0.09795546378282939,0.9998563878676471,0.000184638744157269,15.738764083385467
219,0.09743700329871739,0.9999425551470589,0.00018045405081621214,15.8103777050972
220,0.09871659756583326,0.9998276654411765,0.00017630685760908622,15.881958142916362
221,0.09807790158426061,0.9999425551470589,0.00017219765122740216,15.955141603946686
222,0.09763868350316496,0.9997702205882353,0.00016812691390474788,16.026279938220977
223,0.09829966439043775,0.9997702205882353,0.00016409512336019698,16.097279040018716
224,0.09840545671827652,0.9999425551470589,0.00016010275274224624,16.168531159559887
225,0.09727553716477226,1.0,0.00015615027057328847,16.239821020762125
226,0.09876062085523325,0.9998851102941176,0.00015223814069463077,16.314384122689564
227,0.0975662182797404,0.9999138327205882,0.00014836682221206,16.385777032375337
228,0.09829107978764702,0.9999138327205882,0.00014453676944196475,16.45814297993978
229,0.0981466478722937,0.9999712775735294,0.00014074843185801883,16.52821435133616
230,0.09699391902369611,1.0,0.00013700225403843458,16.598977748552958
231,0.09745957680484828,0.9997702205882353,0.00013329867561378872,16.673271600405375
232,0.0978347529821536,0.9997702205882353,0.0001296381312154305,16.74529177347819
233,0.09737203116802608,0.9999425551470589,0.00012602105042447482,16.81716458797455
234,0.09683430370162516,0.9998851102941176,0.0001224478577213897,16.889005370934804
235,0.09649284885210149,0.9998563878676471,0.00011891897243618183,16.960428722699483
236,0.09779586226624601,0.9999138327205882,0.00011543480869918555,17.03407413562139
237,0.09696252293446485,0.9999425551470589,0.00011199577539246347,17.10585357348124
238,0.09702635249670814,0.9999425551470589,0.00010860227610182222,17.177088431517284
239,0.09669854711083804,0.9998563878676471,0.00010525470906944917,17.24886126120885
240,0.09717551465420161,0.9998563878676471,0.00010195346714717812,17.321167425314584
241,0.09760325336280991,0.9997702205882353,9.869893775038557e-05,17.393527177969613
242,0.09739871279281728,0.9999712775735294,9.549150281252633e-05,17.464978325366975
243,0.09758003603886156,0.9999138327205882,9.233153874031102e-05,17.537345278263093
244,0.09726526171845548,0.9999425551470589,8.921941636953435e-05,17.60858288606008
245,0.09657978419871892,0.9999425551470589,8.615550092155477e-05,17.681756210327148
246,0.09687797374585096,0.9998276654411765,8.31401519604349e-05,17.75456104675929
247,0.09671934869359522,0.9997414981617647,8.017372335074486e-05,17.82785978714625
248,0.09611358230604845,0.9999425551470589,7.725656321603413e-05,17.899814458688102
249,0.09712298082954743,0.9999138327205882,7.43890138979788e-05,17.970419216156007
250,0.09648199510924957,0.9999425551470589,7.157141191620536e-05,18.041106355190276
251,0.09689669091911877,0.9998851102941176,6.880408792879905e-05,18.115004094441733
252,0.09645666620310615,0.9999712775735294,6.60873666934993e-05,18.186288630962373
253,0.09707104918711326,0.9999138327205882,6.342156702958851e-05,18.257896518707277
254,0.09637896497459973,0.9998851102941176,6.080700178047677e-05,18.328064437707265
255,0.09638680561500437,0.9998851102941176,5.8243977776988585e-05,18.398552465438843
256,0.09584598659592516,0.9999138327205882,5.573279580135448e-05,18.47182927131653
257,0.09624893678461804,0.9999712775735294,5.3273750551913246e-05,18.54300618569056
258,0.09643126542077345,0.9998276654411765,5.086713060852788e-05,18.614101747671764
259,0.09727664050810478,0.9998276654411765,4.851321839871908e-05,18.686458400885265
260,0.0966075912994497,0.9999138327205882,4.621229016452155e-05,18.757121523221333
261,0.09653195103301722,0.9999712775735294,4.3964615930065124e-05,18.8320059577624
262,0.09630939232952454,0.9997702205882353,4.1770459469887e-05,18.903934931755067
263,0.0957470297375146,0.9999425551470589,3.963007827797621e-05,18.975660435358684
264,0.09577339887619019,0.9999712775735294,3.754372353755558e-05,19.04738170305888
265,0.09635648898342077,0.9999425551470589,3.551164009160429e-05,19.121086096763612
266,0.09535376837148386,1.0,3.3534066414124486e-05,19.197064793109895
267,0.09649475357111763,0.9998851102941176,3.161123458215553e-05,19.26993642250697
268,0.09614772174288244,0.9998563878676471,2.9743370248538015e-05,19.34118540684382
269,0.09635561288279645,0.9999425551470589,2.7930692615433406e-05,19.413600409030913
270,0.09602203220129013,1.0,2.617341440859883e-05,19.486207640171052
271,0.09602487350211424,0.9998563878676471,2.4471741852423235e-05,19.56014510790507
272,0.09588689598090508,0.9999138327205882,2.282587464572594e-05,19.63153052330017
273,0.09589329997406286,1.0,2.12360059383212e-05,19.70455676317215
274,0.09561026205911356,0.9997989430147058,1.9702322308350672e-05,19.775894021987916
275,0.09572321483317543,0.9997989430147058,1.8225003740388545e-05,19.849285598595937
276,0.0957868011558757,0.9999712775735294,1.680422360431877e-05,19.92443347374598
277,0.0957720882314093,0.9998563878676471,1.544014863498977e-05,19.99575632015864
278,0.0954083445317605,0.9999712775735294,1.4132938912647276e-05,20.06656496524811
279,0.09638633622842677,0.9999138327205882,1.288274784414789e-05,20.137292091051737
280,0.09546974498559446,0.9997414981617647,1.1689722144956671e-05,20.208865042527517
281,0.09600055765579729,0.9997414981617647,1.055400182192906e-05,20.282956182956696
282,0.09571401796796743,1.0,9.475720156880418e-06,20.35438149770101
283,0.09624925496823647,0.9999425551470589,8.45500369094504e-06,20.426476335525514
284,0.09617098223637133,0.9997989430147058,7.4919722097258055e-06,20.49738744099935
285,0.09539739217828302,0.9999712775735294,6.58673872923693e-06,20.56877126296361
286,0.09567999861696187,0.9999712775735294,5.739409482640901e-06,20.6420595963796
287,0.09648413824684479,0.9998851102941176,4.950083907781733e-06,20.71232219537099
288,0.09565980469479281,0.9998851102941176,4.218854635515301e-06,20.78469407161077
289,0.0960681859184714,0.9999425551470589,3.545807478838814e-06,20.856182118256886
290,0.09611355622901636,0.9998276654411765,2.9310214228202015e-06,20.928279423713683
291,0.0951725947944557,0.9999712775735294,2.3745686153290315e-06,21.00243134498596
292,0.09531876510557007,0.9999712775735294,1.8765143585693922e-06,21.07494000196457
293,0.09663568809628487,0.9997702205882353,1.4369171014165793e-06,21.148609522978465
294,0.09554282159489744,0.9997989430147058,1.0558284325578037e-06,21.220027967294058
295,0.0958592806230573,0.9999712775735294,7.332930744380905e-07,21.29185322125753
296,0.09573728481636327,0.9998851102941176,4.6934887801164396e-07,21.36694267590841
297,0.0952794455430087,0.9998851102941176,2.6402681830023365e-07,21.438412400086722
298,0.09590127954588216,1.0,1.173509907579362e-07,21.510866737365724
299,0.0957183314158636,0.9998851102941176,2.933860844345215e-08,21.58216017484665
300,0.09573366712121402,0.9998563878676471,0.0,21.65465695063273
